R.Time (min)	Intensity
0,00000	-0
0,00833	-0
0,01667	0
0,02500	0
0,03333	-0
0,04167	-1
0,05000	-1
0,05833	-1
0,06667	-1
0,07500	-1
0,08333	-1
0,09167	-1
0,10000	-1
0,10833	-1
0,11667	-1
0,12500	-1
0,13333	-1
0,14167	-0
0,15000	-0
0,15833	-0
0,16667	0
0,17500	1
0,18333	1
0,19167	1
0,20000	1
0,20833	1
0,21667	1
0,22500	1
0,23333	1
0,24167	1
0,25000	1
0,25833	1
0,26667	0
0,27500	0
0,28333	1
0,29167	0
0,30000	0
0,30833	0
0,31667	0
0,32500	0
0,33333	1
0,34167	1
0,35000	1
0,35833	2
0,36667	2
0,37500	2
0,38333	2
0,39167	2
0,40000	2
0,40833	1
0,41667	1
0,42500	-0
0,43333	-0
0,44167	-1
0,45000	-1
0,45833	-2
0,46667	-2
0,47500	-2
0,48333	-2
0,49167	-2
0,50000	-2
0,50833	-2
0,51667	-2
0,52500	-2
0,53333	-1
0,54167	-1
0,55000	-1
0,55833	-1
0,56667	-1
0,57500	-1
0,58333	-1
0,59167	-1
0,60000	-1
0,60833	-0
0,61667	-0
0,62500	0
0,63333	0
0,64167	-0
0,65000	-0
0,65833	-1
0,66667	-1
0,67500	-1
0,68333	-1
0,69167	-1
0,70000	-1
0,70833	-1
0,71667	-1
0,72500	-1
0,73333	-1
0,74167	-1
0,75000	-1
0,75833	-1
0,76667	-1
0,77500	-1
0,78333	-0
0,79167	-0
0,80000	-1
0,80833	-1
0,81667	-1
0,82500	-0
0,83333	0
0,84167	1
0,85000	0
0,85833	0
0,86667	0
0,87500	-0
0,88333	-0
0,89167	-0
0,90000	0
0,90833	0
0,91667	-0
0,92500	-0
0,93333	-0
0,94167	-0
0,95000	-0
0,95833	-0
0,96667	-0
0,97500	0
0,98333	-0
0,99167	-0
1,00000	-0
1,00833	-1
1,01667	-1
1,02500	-0
1,03333	0
1,04167	0
1,05000	-0
1,05833	-0
1,06667	-1
1,07500	-1
1,08333	-1
1,09167	-1
1,10000	-1
1,10833	-1
1,11667	-1
1,12500	-1
1,13333	-1
1,14167	-1
1,15000	-1
1,15833	-1
1,16667	-1
1,17500	-1
1,18333	-1
1,19167	-1
1,20000	-1
1,20833	-1
1,21667	-1
1,22500	-1
1,23333	-1
1,24167	-1
1,25000	-1
1,25833	-1
1,26667	-1
1,27500	-1
1,28333	-0
1,29167	-0
1,30000	-1
1,30833	-0
1,31667	-0
1,32500	0
1,33333	1
1,34167	0
1,35000	-0
1,35833	-0
1,36667	-0
1,37500	-1
1,38333	-1
1,39167	-1
1,40000	-1
1,40833	-1
1,41667	-1
1,42500	-1
1,43333	-1
1,44167	-0
1,45000	-0
1,45833	0
1,46667	0
1,47500	0
1,48333	0
1,49167	0
1,50000	0
1,50833	0
1,51667	0
1,52500	0
1,53333	-0
1,54167	-0
1,55000	-1
1,55833	-1
1,56667	-0
1,57500	-0
1,58333	-0
1,59167	-0
1,60000	-0
1,60833	-0
1,61667	-0
1,62500	-1
1,63333	-1
1,64167	-1
1,65000	-1
1,65833	-1
1,66667	-1
1,67500	-1
1,68333	-1
1,69167	-1
1,70000	-1
1,70833	-1
1,71667	-1
1,72500	-1
1,73333	-2
1,74167	-2
1,75000	-1
1,75833	-1
1,76667	-1
1,77500	-1
1,78333	-1
1,79167	-1
1,80000	-1
1,80833	-1
1,81667	-2
1,82500	-2
1,83333	-1
1,84167	-1
1,85000	-1
1,85833	-1
1,86667	-1
1,87500	-1
1,88333	-1
1,89167	-1
1,90000	-1
1,90833	-1
1,91667	-1
1,92500	-1
1,93333	-1
1,94167	-1
1,95000	-1
1,95833	-1
1,96667	-1
1,97500	-1
1,98333	-1
1,99167	-1
2,00000	-1
2,00833	-1
2,01667	-2
2,02500	-2
2,03333	-2
2,04167	-2
2,05000	-1
2,05833	-1
2,06667	-1
2,07500	-2
2,08333	-2
2,09167	-2
2,10000	-1
2,10833	-1
2,11667	-1
2,12500	-0
2,13333	-0
2,14167	-0
2,15000	-1
2,15833	-1
2,16667	-1
2,17500	-1
2,18333	-1
2,19167	-1
2,20000	-1
2,20833	-1
2,21667	-1
2,22500	-1
2,23333	-1
2,24167	-1
2,25000	-0
2,25833	-1
2,26667	-0
2,27500	-0
2,28333	-0
2,29167	-1
2,30000	-1
2,30833	-1
2,31667	-1
2,32500	-1
2,33333	-1
2,34167	-0
2,35000	-0
2,35833	-0
2,36667	0
2,37500	0
2,38333	-0
2,39167	-0
2,40000	-0
2,40833	-0
2,41667	-0
2,42500	-0
2,43333	-0
2,44167	-0
2,45000	0
2,45833	0
2,46667	1
2,47500	1
2,48333	1
2,49167	1
2,50000	1
2,50833	1
2,51667	2
2,52500	2
2,53333	2
2,54167	2
2,55000	2
2,55833	2
2,56667	2
2,57500	2
2,58333	2
2,59167	3
2,60000	3
2,60833	3
2,61667	3
2,62500	3
2,63333	2
2,64167	2
2,65000	2
2,65833	2
2,66667	2
2,67500	2
2,68333	2
2,69167	2
2,70000	1
2,70833	1
2,71667	1
2,72500	1
2,73333	1
2,74167	2
2,75000	2
2,75833	2
2,76667	2
2,77500	2
2,78333	2
2,79167	2
2,80000	2
2,80833	2
2,81667	2
2,82500	2
2,83333	2
2,84167	2
2,85000	2
2,85833	2
2,86667	2
2,87500	1
2,88333	1
2,89167	1
2,90000	1
2,90833	1
2,91667	2
2,92500	2
2,93333	2
2,94167	2
2,95000	2
2,95833	2
2,96667	2
2,97500	2
2,98333	2
2,99167	2
3,00000	2
3,00833	2
3,01667	2
3,02500	2
3,03333	2
3,04167	2
3,05000	2
3,05833	2
3,06667	2
3,07500	2
3,08333	2
3,09167	2
3,10000	2
3,10833	3
3,11667	3
3,12500	2
3,13333	2
3,14167	2
3,15000	2
3,15833	2
3,16667	2
3,17500	1
3,18333	1
3,19167	1
3,20000	1
3,20833	1
3,21667	2
3,22500	2
3,23333	2
3,24167	2
3,25000	2
3,25833	2
3,26667	2
3,27500	2
3,28333	2
3,29167	2
3,30000	1
3,30833	1
3,31667	1
3,32500	1
3,33333	1
3,34167	1
3,35000	1
3,35833	1
3,36667	1
3,37500	1
3,38333	1
3,39167	1
3,40000	1
3,40833	1
3,41667	1
3,42500	1
3,43333	2
3,44167	2
3,45000	2
3,45833	2
3,46667	2
3,47500	2
3,48333	1
3,49167	1
3,50000	1
3,50833	1
3,51667	1
3,52500	1
3,53333	1
3,54167	1
3,55000	1
3,55833	1
3,56667	1
3,57500	1
3,58333	1
3,59167	1
3,60000	1
3,60833	1
3,61667	1
3,62500	1
3,63333	1
3,64167	1
3,65000	1
3,65833	1
3,66667	1
3,67500	1
3,68333	0
3,69167	0
3,70000	0
3,70833	0
3,71667	0
3,72500	0
3,73333	0
3,74167	0
3,75000	0
3,75833	0
3,76667	0
3,77500	0
3,78333	0
3,79167	0
3,80000	0
3,80833	0
3,81667	0
3,82500	1
3,83333	1
3,84167	1
3,85000	1
3,85833	1
3,86667	1
3,87500	0
3,88333	0
3,89167	-0
3,90000	0
3,90833	0
3,91667	1
3,92500	1
3,93333	1
3,94167	1
3,95000	1
3,95833	1
3,96667	1
3,97500	1
3,98333	1
3,99167	1
4,00000	1
4,00833	1
4,01667	1
4,02500	1
4,03333	1
4,04167	2
4,05000	2
4,05833	2
4,06667	2
4,07500	2
4,08333	2
4,09167	2
4,10000	2
4,10833	2
4,11667	2
4,12500	2
4,13333	2
4,14167	2
4,15000	2
4,15833	2
4,16667	2
4,17500	2
4,18333	2
4,19167	2
4,20000	2
4,20833	2
4,21667	2
4,22500	2
4,23333	2
4,24167	2
4,25000	2
4,25833	2
4,26667	2
4,27500	2
4,28333	1
4,29167	1
4,30000	1
4,30833	1
4,31667	1
4,32500	1
4,33333	2
4,34167	2
4,35000	3
4,35833	3
4,36667	2
4,37500	2
4,38333	2
4,39167	2
4,40000	2
4,40833	1
4,41667	1
4,42500	1
4,43333	2
4,44167	2
4,45000	2
4,45833	1
4,46667	1
4,47500	1
4,48333	1
4,49167	1
4,50000	1
4,50833	2
4,51667	2
4,52500	2
4,53333	2
4,54167	2
4,55000	2
4,55833	2
4,56667	2
4,57500	2
4,58333	2
4,59167	2
4,60000	2
4,60833	2
4,61667	2
4,62500	2
4,63333	2
4,64167	2
4,65000	2
4,65833	2
4,66667	2
4,67500	2
4,68333	2
4,69167	3
4,70000	3
4,70833	3
4,71667	3
4,72500	3
4,73333	3
4,74167	3
4,75000	3
4,75833	3
4,76667	2
4,77500	2
4,78333	2
4,79167	2
4,80000	2
4,80833	2
4,81667	2
4,82500	2
4,83333	2
4,84167	2
4,85000	2
4,85833	2
4,86667	2
4,87500	3
4,88333	3
4,89167	3
4,90000	2
4,90833	2
4,91667	2
4,92500	2
4,93333	3
4,94167	3
4,95000	3
4,95833	3
4,96667	3
4,97500	4
4,98333	3
4,99167	3
5,00000	3
5,00833	3
5,01667	3
5,02500	3
5,03333	3
5,04167	2
5,05000	2
5,05833	3
5,06667	3
5,07500	3
5,08333	3
5,09167	3
5,10000	4
5,10833	4
5,11667	4
5,12500	4
5,13333	4
5,14167	4
5,15000	4
5,15833	3
5,16667	2
5,17500	2
5,18333	2
5,19167	2
5,20000	3
5,20833	3
5,21667	3
5,22500	3
5,23333	3
5,24167	3
5,25000	3
5,25833	3
5,26667	3
5,27500	3
5,28333	3
5,29167	3
5,30000	3
5,30833	3
5,31667	4
5,32500	4
5,33333	3
5,34167	3
5,35000	3
5,35833	2
5,36667	2
5,37500	2
5,38333	3
5,39167	2
5,40000	2
5,40833	2
5,41667	2
5,42500	2
5,43333	2
5,44167	2
5,45000	2
5,45833	2
5,46667	2
5,47500	2
5,48333	2
5,49167	2
5,50000	2
5,50833	3
5,51667	3
5,52500	3
5,53333	3
5,54167	3
5,55000	3
5,55833	3
5,56667	3
5,57500	4
5,58333	5
5,59167	5
5,60000	5
5,60833	5
5,61667	5
5,62500	5
5,63333	4
5,64167	4
5,65000	4
5,65833	4
5,66667	4
5,67500	4
5,68333	4
5,69167	4
5,70000	5
5,70833	5
5,71667	5
5,72500	5
5,73333	5
5,74167	5
5,75000	4
5,75833	4
5,76667	4
5,77500	4
5,78333	4
5,79167	4
5,80000	4
5,80833	4
5,81667	4
5,82500	4
5,83333	4
5,84167	4
5,85000	4
5,85833	5
5,86667	5
5,87500	4
5,88333	4
5,89167	3
5,90000	3
5,90833	3
5,91667	3
5,92500	3
5,93333	3
5,94167	3
5,95000	3
5,95833	4
5,96667	4
5,97500	4
5,98333	4
5,99167	3
6,00000	3
6,00833	3
6,01667	3
6,02500	2
6,03333	2
6,04167	2
6,05000	2
6,05833	2
6,06667	2
6,07500	1
6,08333	1
6,09167	1
6,10000	1
6,10833	1
6,11667	-0
6,12500	-1
6,13333	-2
6,14167	-3
6,15000	-6
6,15833	-10
6,16667	-16
6,17500	-25
6,18333	-39
6,19167	-60
6,20000	-91
6,20833	-137
6,21667	-204
6,22500	-299
6,23333	-432
6,24167	-616
6,25000	-864
6,25833	-1192
6,26667	-1613
6,27500	-2142
6,28333	-2787
6,29167	-3551
6,30000	-4430
6,30833	-5409
6,31667	-6463
6,32500	-7561
6,33333	-8663
6,34167	-9727
6,35000	-10709
6,35833	-11570
6,36667	-12276
6,37500	-12804
6,38333	-13137
6,39167	-13270
6,40000	-13207
6,40833	-12962
6,41667	-12552
6,42500	-12002
6,43333	-11339
6,44167	-10591
6,45000	-9786
6,45833	-8949
6,46667	-8104
6,47500	-7271
6,48333	-6466
6,49167	-5703
6,50000	-4991
6,50833	-4336
6,51667	-3741
6,52500	-3208
6,53333	-2735
6,54167	-2319
6,55000	-1958
6,55833	-1646
6,56667	-1379
6,57500	-1151
6,58333	-959
6,59167	-797
6,60000	-661
6,60833	-549
6,61667	-455
6,62500	-378
6,63333	-314
6,64167	-261
6,65000	-218
6,65833	-183
6,66667	-154
6,67500	-129
6,68333	-110
6,69167	-94
6,70000	-81
6,70833	-70
6,71667	-60
6,72500	-53
6,73333	-47
6,74167	-41
6,75000	-36
6,75833	-32
6,76667	-29
6,77500	-26
6,78333	-23
6,79167	-21
6,80000	-19
6,80833	-17
6,81667	-16
6,82500	-15
6,83333	-14
6,84167	-13
6,85000	-12
6,85833	-11
6,86667	-10
6,87500	-10
6,88333	-9
6,89167	-8
6,90000	-7
6,90833	-7
6,91667	-7
6,92500	-7
6,93333	-6
6,94167	-6
6,95000	-6
6,95833	-5
6,96667	-5
6,97500	-5
6,98333	-4
6,99167	-4
7,00000	-3
7,00833	-3
7,01667	-3
7,02500	-2
7,03333	-2
7,04167	-1
7,05000	-1
7,05833	-1
7,06667	-1
7,07500	-2
7,08333	-2
7,09167	-2
7,10000	-2
7,10833	-2
7,11667	-2
7,12500	-2
7,13333	-1
7,14167	-1
7,15000	-1
7,15833	-1
7,16667	-2
7,17500	-2
7,18333	-2
7,19167	-1
7,20000	-1
7,20833	-1
7,21667	-0
7,22500	-0
7,23333	0
7,24167	0
7,25000	0
7,25833	0
7,26667	0
7,27500	0
7,28333	0
7,29167	0
7,30000	0
7,30833	1
7,31667	1
7,32500	1
7,33333	1
7,34167	2
7,35000	2
7,35833	2
7,36667	2
7,37500	2
7,38333	2
7,39167	2
7,40000	2
7,40833	2
7,41667	2
7,42500	2
7,43333	2
7,44167	1
7,45000	1
7,45833	2
7,46667	2
7,47500	2
7,48333	2
7,49167	2
7,50000	2
7,50833	2
7,51667	2
7,52500	3
7,53333	3
7,54167	3
7,55000	3
7,55833	3
7,56667	3
7,57500	3
7,58333	3
7,59167	3
7,60000	3
7,60833	3
7,61667	3
7,62500	3
7,63333	3
7,64167	3
7,65000	3
7,65833	4
7,66667	4
7,67500	4
7,68333	4
7,69167	4
7,70000	3
7,70833	3
7,71667	4
7,72500	4
7,73333	4
7,74167	4
7,75000	4
7,75833	5
7,76667	5
7,77500	5
7,78333	5
7,79167	5
7,80000	5
7,80833	5
7,81667	5
7,82500	5
7,83333	5
7,84167	5
7,85000	5
7,85833	5
7,86667	5
7,87500	4
7,88333	4
7,89167	4
7,90000	4
7,90833	4
7,91667	4
7,92500	5
7,93333	5
7,94167	5
7,95000	4
7,95833	4
7,96667	4
7,97500	4
7,98333	4
7,99167	4
8,00000	4
8,00833	4
8,01667	4
8,02500	4
8,03333	4
8,04167	4
8,05000	4
8,05833	4
8,06667	4
8,07500	4
8,08333	4
8,09167	4
8,10000	4
8,10833	5
8,11667	5
8,12500	5
8,13333	5
8,14167	5
8,15000	5
8,15833	5
8,16667	5
8,17500	5
8,18333	5
8,19167	5
8,20000	5
8,20833	6
8,21667	6
8,22500	6
8,23333	6
8,24167	5
8,25000	5
8,25833	5
8,26667	5
8,27500	5
8,28333	5
8,29167	5
8,30000	5
8,30833	5
8,31667	5
8,32500	5
8,33333	5
8,34167	5
8,35000	5
8,35833	5
8,36667	5
8,37500	6
8,38333	6
8,39167	5
8,40000	6
8,40833	6
8,41667	5
8,42500	5
8,43333	5
8,44167	5
8,45000	5
8,45833	5
8,46667	5
8,47500	5
8,48333	6
8,49167	6
8,50000	6
8,50833	6
8,51667	7
8,52500	7
8,53333	6
8,54167	6
8,55000	6
8,55833	6
8,56667	7
8,57500	6
8,58333	6
8,59167	6
8,60000	6
8,60833	6
8,61667	6
8,62500	6
8,63333	7
8,64167	7
8,65000	7
8,65833	7
8,66667	7
8,67500	7
8,68333	7
8,69167	7
8,70000	7
8,70833	7
8,71667	7
8,72500	7
8,73333	7
8,74167	7
8,75000	7
8,75833	7
8,76667	7
8,77500	6
8,78333	6
8,79167	6
8,80000	6
8,80833	6
8,81667	6
8,82500	6
8,83333	6
8,84167	5
8,85000	5
8,85833	6
8,86667	6
8,87500	6
8,88333	6
8,89167	6
8,90000	6
8,90833	6
8,91667	6
8,92500	5
8,93333	5
8,94167	6
8,95000	6
8,95833	6
8,96667	6
8,97500	6
8,98333	6
8,99167	6
9,00000	6
9,00833	7
9,01667	7
9,02500	7
9,03333	7
9,04167	7
9,05000	7
9,05833	7
9,06667	8
9,07500	8
9,08333	7
9,09167	7
9,10000	7
9,10833	7
9,11667	7
9,12500	7
9,13333	7
9,14167	7
9,15000	6
9,15833	6
9,16667	6
9,17500	7
9,18333	7
9,19167	7
9,20000	7
9,20833	7
9,21667	7
9,22500	7
9,23333	7
9,24167	7
9,25000	6
9,25833	6
9,26667	6
9,27500	7
9,28333	7
9,29167	7
9,30000	7
9,30833	7
9,31667	7
9,32500	7
9,33333	7
9,34167	7
9,35000	7
9,35833	7
9,36667	7
9,37500	7
9,38333	6
9,39167	6
9,40000	6
9,40833	6
9,41667	6
9,42500	6
9,43333	7
9,44167	7
9,45000	7
9,45833	7
9,46667	6
9,47500	7
9,48333	7
9,49167	7
9,50000	7
9,50833	7
9,51667	6
9,52500	6
9,53333	6
9,54167	6
9,55000	7
9,55833	6
9,56667	6
9,57500	6
9,58333	7
9,59167	7
9,60000	7
9,60833	6
9,61667	6
9,62500	7
9,63333	7
9,64167	7
9,65000	7
9,65833	7
9,66667	7
9,67500	7
9,68333	7
9,69167	7
9,70000	8
9,70833	8
9,71667	8
9,72500	8
9,73333	7
9,74167	7
9,75000	7
9,75833	7
9,76667	7
9,77500	7
9,78333	7
9,79167	8
9,80000	8
9,80833	8
9,81667	8
9,82500	8
9,83333	8
9,84167	7
9,85000	7
9,85833	7
9,86667	7
9,87500	8
9,88333	8
9,89167	8
9,90000	8
9,90833	8
9,91667	8
9,92500	8
9,93333	8
9,94167	8
9,95000	8
9,95833	8
9,96667	8
9,97500	8
9,98333	8
9,99167	8
10,00000	8
10,00833	8
10,01667	8
10,02500	8
10,03333	8
10,04167	7
10,05000	7
10,05833	7
10,06667	7
10,07500	7
10,08333	7
10,09167	7
10,10000	7
10,10833	8
10,11667	8
10,12500	8
10,13333	8
10,14167	8
10,15000	8
10,15833	8
10,16667	8
10,17500	8
10,18333	8
10,19167	8
10,20000	8
10,20833	8
10,21667	8
10,22500	8
10,23333	8
10,24167	8
10,25000	8
10,25833	8
10,26667	8
10,27500	8
10,28333	7
10,29167	8
10,30000	8
10,30833	8
10,31667	8
10,32500	8
10,33333	8
10,34167	7
10,35000	7
10,35833	7
10,36667	7
10,37500	7
10,38333	7
10,39167	7
10,40000	7
10,40833	7
10,41667	6
10,42500	6
10,43333	6
10,44167	7
10,45000	7
10,45833	7
10,46667	7
10,47500	7
10,48333	7
10,49167	7
10,50000	7
10,50833	7
10,51667	6
10,52500	6
10,53333	6
10,54167	7
10,55000	7
10,55833	7
10,56667	7
10,57500	7
10,58333	8
10,59167	8
10,60000	8
10,60833	8
10,61667	8
10,62500	8
10,63333	9
10,64167	9
10,65000	9
10,65833	9
10,66667	9
10,67500	9
10,68333	9
10,69167	8
10,70000	8
10,70833	8
10,71667	8
10,72500	8
10,73333	8
10,74167	9
10,75000	8
10,75833	8
10,76667	8
10,77500	8
10,78333	7
10,79167	7
10,80000	7
10,80833	8
10,81667	8
10,82500	8
10,83333	8
10,84167	8
10,85000	8
10,85833	7
10,86667	7
10,87500	7
10,88333	8
10,89167	8
10,90000	8
10,90833	8
10,91667	8
10,92500	8
10,93333	8
10,94167	8
10,95000	8
10,95833	7
10,96667	8
10,97500	8
10,98333	8
10,99167	8
11,00000	7
11,00833	7
11,01667	7
11,02500	7
11,03333	6
11,04167	6
11,05000	7
11,05833	7
11,06667	7
11,07500	7
11,08333	7
11,09167	7
11,10000	7
11,10833	7
11,11667	7
11,12500	7
11,13333	7
11,14167	7
11,15000	7
11,15833	7
11,16667	7
11,17500	7
11,18333	8
11,19167	8
11,20000	8
11,20833	8
11,21667	9
11,22500	9
11,23333	9
11,24167	9
11,25000	9
11,25833	9
11,26667	9
11,27500	9
11,28333	8
11,29167	8
11,30000	8
11,30833	8
11,31667	8
11,32500	8
11,33333	8
11,34167	8
11,35000	9
11,35833	9
11,36667	9
11,37500	9
11,38333	9
11,39167	9
11,40000	9
11,40833	8
11,41667	8
11,42500	8
11,43333	8
11,44167	8
11,45000	8
11,45833	8
11,46667	8
11,47500	9
11,48333	8
11,49167	8
11,50000	8
11,50833	9
11,51667	9
11,52500	9
11,53333	9
11,54167	9
11,55000	9
11,55833	8
11,56667	8
11,57500	8
11,58333	9
11,59167	9
11,60000	9
11,60833	9
11,61667	9
11,62500	9
11,63333	9
11,64167	9
11,65000	9
11,65833	9
11,66667	9
11,67500	9
11,68333	9
11,69167	8
11,70000	8
11,70833	8
11,71667	9
11,72500	9
11,73333	9
11,74167	9
11,75000	9
11,75833	10
11,76667	10
11,77500	10
11,78333	10
11,79167	10
11,80000	10
11,80833	10
11,81667	10
11,82500	10
11,83333	10
11,84167	10
11,85000	10
11,85833	10
11,86667	10
11,87500	11
11,88333	11
11,89167	11
11,90000	11
11,90833	10
11,91667	10
11,92500	10
11,93333	10
11,94167	10
11,95000	10
11,95833	10
11,96667	10
11,97500	11
11,98333	11
11,99167	11
12,00000	10
12,00833	10
12,01667	10
12,02500	9
12,03333	9
12,04167	9
12,05000	9
12,05833	9
12,06667	9
12,07500	9
12,08333	9
12,09167	10
12,10000	10
12,10833	11
12,11667	11
12,12500	11
12,13333	10
12,14167	10
12,15000	11
12,15833	11
12,16667	11
12,17500	10
12,18333	10
12,19167	10
12,20000	10
12,20833	10
12,21667	10
12,22500	10
12,23333	10
12,24167	10
12,25000	10
12,25833	10
12,26667	10
12,27500	10
12,28333	10
12,29167	11
12,30000	11
12,30833	11
12,31667	11
12,32500	11
12,33333	11
12,34167	11
12,35000	10
12,35833	10
12,36667	10
12,37500	10
12,38333	10
12,39167	10
12,40000	11
12,40833	11
12,41667	11
12,42500	11
12,43333	11
12,44167	11
12,45000	11
12,45833	11
12,46667	11
12,47500	11
12,48333	11
12,49167	10
12,50000	10
12,50833	11
12,51667	11
12,52500	11
12,53333	11
12,54167	11
12,55000	11
12,55833	11
12,56667	11
12,57500	11
12,58333	11
12,59167	12
12,60000	11
12,60833	11
12,61667	11
12,62500	11
12,63333	11
12,64167	11
12,65000	11
12,65833	12
12,66667	12
12,67500	12
12,68333	12
12,69167	12
12,70000	12
12,70833	12
12,71667	12
12,72500	12
12,73333	12
12,74167	12
12,75000	13
12,75833	13
12,76667	13
12,77500	13
12,78333	13
12,79167	13
12,80000	13
12,80833	13
12,81667	12
12,82500	13
12,83333	13
12,84167	13
12,85000	13
12,85833	13
12,86667	13
12,87500	13
12,88333	13
12,89167	13
12,90000	13
12,90833	12
12,91667	12
12,92500	12
12,93333	13
12,94167	13
12,95000	12
12,95833	13
12,96667	12
12,97500	12
12,98333	12
12,99167	12
13,00000	12
13,00833	12
13,01667	12
13,02500	11
13,03333	11
13,04167	11
13,05000	11
13,05833	11
13,06667	11
13,07500	11
13,08333	11
13,09167	11
13,10000	11
13,10833	11
13,11667	11
13,12500	11
13,13333	11
13,14167	11
13,15000	11
13,15833	11
13,16667	11
13,17500	11
13,18333	10
13,19167	10
13,20000	11
13,20833	11
13,21667	11
13,22500	10
13,23333	10
13,24167	10
13,25000	10
13,25833	10
13,26667	10
13,27500	10
13,28333	10
13,29167	10
13,30000	10
13,30833	10
13,31667	10
13,32500	11
13,33333	11
13,34167	11
13,35000	11
13,35833	11
13,36667	10
13,37500	10
13,38333	10
13,39167	10
13,40000	10
13,40833	9
13,41667	9
13,42500	9
13,43333	9
13,44167	8
13,45000	8
13,45833	8
13,46667	8
13,47500	8
13,48333	8
13,49167	9
13,50000	9
13,50833	9
13,51667	9
13,52500	9
13,53333	9
13,54167	9
13,55000	9
13,55833	9
13,56667	10
13,57500	10
13,58333	9
13,59167	9
13,60000	9
13,60833	9
13,61667	9
13,62500	9
13,63333	9
13,64167	10
13,65000	10
13,65833	10
13,66667	10
13,67500	10
13,68333	10
13,69167	10
13,70000	10
13,70833	10
13,71667	10
13,72500	10
13,73333	10
13,74167	10
13,75000	10
13,75833	10
13,76667	10
13,77500	10
13,78333	10
13,79167	10
13,80000	10
13,80833	10
13,81667	10
13,82500	10
13,83333	11
13,84167	11
13,85000	11
13,85833	12
13,86667	12
13,87500	12
13,88333	12
13,89167	12
13,90000	12
13,90833	12
13,91667	12
13,92500	12
13,93333	12
13,94167	12
13,95000	12
13,95833	12
13,96667	12
13,97500	12
13,98333	12
13,99167	13
14,00000	13
14,00833	12
14,01667	12
14,02500	12
14,03333	12
14,04167	13
14,05000	13
14,05833	13
14,06667	13
14,07500	13
14,08333	13
14,09167	13
14,10000	13
14,10833	12
14,11667	12
14,12500	12
14,13333	12
14,14167	12
14,15000	12
14,15833	12
14,16667	12
14,17500	12
14,18333	12
14,19167	12
14,20000	12
14,20833	12
14,21667	12
14,22500	12
14,23333	12
14,24167	13
14,25000	13
14,25833	13
14,26667	13
14,27500	13
14,28333	13
14,29167	12
14,30000	12
14,30833	12
14,31667	12
14,32500	12
14,33333	12
14,34167	13
14,35000	13
14,35833	13
14,36667	13
14,37500	13
14,38333	13
14,39167	13
14,40000	13
14,40833	13
14,41667	13
14,42500	13
14,43333	13
14,44167	12
14,45000	12
14,45833	12
14,46667	12
14,47500	12
14,48333	12
14,49167	11
14,50000	11
14,50833	11
14,51667	11
14,52500	11
14,53333	11
14,54167	11
14,55000	11
14,55833	11
14,56667	11
14,57500	11
14,58333	11
14,59167	10
14,60000	10
14,60833	11
14,61667	11
14,62500	11
14,63333	11
14,64167	12
14,65000	12
14,65833	12
14,66667	12
14,67500	12
14,68333	12
14,69167	12
14,70000	12
14,70833	11
14,71667	11
14,72500	10
14,73333	10
14,74167	10
14,75000	10
14,75833	10
14,76667	10
14,77500	10
14,78333	11
14,79167	11
14,80000	11
14,80833	11
14,81667	11
14,82500	11
14,83333	11
14,84167	11
14,85000	12
14,85833	12
14,86667	12
14,87500	12
14,88333	12
14,89167	12
14,90000	11
14,90833	11
14,91667	11
14,92500	11
14,93333	11
14,94167	11
14,95000	11
14,95833	11
14,96667	12
14,97500	12
14,98333	12
14,99167	12
15,00000	12
15,00833	12
15,01667	12
15,02500	12
15,03333	12
15,04167	12
15,05000	12
15,05833	12
15,06667	12
15,07500	12
15,08333	12
15,09167	12
15,10000	12
15,10833	12
15,11667	12
15,12500	11
15,13333	11
15,14167	11
15,15000	11
15,15833	11
15,16667	11
15,17500	11
15,18333	11
15,19167	11
15,20000	11
15,20833	11
15,21667	11
15,22500	11
15,23333	11
15,24167	11
15,25000	11
15,25833	11
15,26667	11
15,27500	11
15,28333	11
15,29167	11
15,30000	11
15,30833	11
15,31667	11
15,32500	11
15,33333	11
15,34167	11
15,35000	11
15,35833	11
15,36667	11
15,37500	11
15,38333	11
15,39167	11
15,40000	11
15,40833	12
15,41667	12
15,42500	12
15,43333	12
15,44167	12
15,45000	12
15,45833	12
15,46667	12
15,47500	12
15,48333	12
15,49167	12
15,50000	12
15,50833	11
15,51667	11
15,52500	12
15,53333	12
15,54167	12
15,55000	12
15,55833	12
15,56667	12
15,57500	12
15,58333	12
15,59167	12
15,60000	12
15,60833	12
15,61667	11
15,62500	11
15,63333	11
15,64167	11
15,65000	11
15,65833	11
15,66667	11
15,67500	11
15,68333	11
15,69167	11
15,70000	11
15,70833	11
15,71667	11
15,72500	12
15,73333	12
15,74167	12
15,75000	12
15,75833	12
15,76667	12
15,77500	12
15,78333	12
15,79167	12
15,80000	12
15,80833	12
15,81667	12
15,82500	12
15,83333	11
15,84167	11
15,85000	11
15,85833	11
15,86667	12
15,87500	12
15,88333	12
15,89167	12
15,90000	11
15,90833	11
15,91667	11
15,92500	11
15,93333	11
15,94167	11
15,95000	11
15,95833	11
15,96667	12
15,97500	12
15,98333	12
15,99167	12
16,00000	12
16,00833	12
16,01667	12
16,02500	12
16,03333	12
16,04167	12
16,05000	12
16,05833	12
16,06667	12
16,07500	12
16,08333	12
16,09167	11
16,10000	11
16,10833	11
16,11667	11
16,12500	11
16,13333	11
16,14167	11
16,15000	12
16,15833	11
16,16667	11
16,17500	11
16,18333	11
16,19167	12
16,20000	12
16,20833	12
16,21667	12
16,22500	12
16,23333	12
16,24167	12
16,25000	11
16,25833	11
16,26667	11
16,27500	11
16,28333	11
16,29167	11
16,30000	11
16,30833	11
16,31667	11
16,32500	11
16,33333	11
16,34167	11
16,35000	11
16,35833	11
16,36667	11
16,37500	11
16,38333	11
16,39167	11
16,40000	11
16,40833	11
16,41667	11
16,42500	12
16,43333	12
16,44167	12
16,45000	12
16,45833	12
16,46667	12
16,47500	12
16,48333	12
16,49167	11
16,50000	11
16,50833	11
16,51667	12
16,52500	12
16,53333	12
16,54167	12
16,55000	12
16,55833	12
16,56667	12
16,57500	12
16,58333	12
16,59167	12
16,60000	12
16,60833	12
16,61667	13
16,62500	13
16,63333	13
16,64167	13
16,65000	13
16,65833	13
16,66667	13
16,67500	12
16,68333	13
16,69167	13
16,70000	13
16,70833	14
16,71667	14
16,72500	14
16,73333	13
16,74167	13
16,75000	12
16,75833	12
16,76667	12
16,77500	13
16,78333	13
16,79167	13
16,80000	13
16,80833	13
16,81667	14
16,82500	14
16,83333	13
16,84167	13
16,85000	13
16,85833	13
16,86667	13
16,87500	13
16,88333	13
16,89167	13
16,90000	13
16,90833	13
16,91667	13
16,92500	13
16,93333	13
16,94167	13
16,95000	12
16,95833	12
16,96667	12
16,97500	12
16,98333	13
16,99167	13
17,00000	13
17,00833	13
17,01667	13
17,02500	13
17,03333	13
17,04167	12
17,05000	13
17,05833	13
17,06667	13
17,07500	12
17,08333	12
17,09167	12
17,10000	12
17,10833	13
17,11667	13
17,12500	13
17,13333	12
17,14167	12
17,15000	12
17,15833	12
17,16667	12
17,17500	12
17,18333	12
17,19167	12
17,20000	13
17,20833	13
17,21667	13
17,22500	13
17,23333	12
17,24167	13
17,25000	13
17,25833	13
17,26667	13
17,27500	12
17,28333	12
17,29167	12
17,30000	12
17,30833	12
17,31667	13
17,32500	13
17,33333	13
17,34167	13
17,35000	13
17,35833	13
17,36667	13
17,37500	13
17,38333	13
17,39167	13
17,40000	13
17,40833	13
17,41667	13
17,42500	12
17,43333	12
17,44167	12
17,45000	12
17,45833	12
17,46667	12
17,47500	12
17,48333	12
17,49167	13
17,50000	13
17,50833	13
17,51667	13
17,52500	13
17,53333	13
17,54167	12
17,55000	12
17,55833	12
17,56667	13
17,57500	12
17,58333	13
17,59167	12
17,60000	12
17,60833	12
17,61667	12
17,62500	12
17,63333	12
17,64167	12
17,65000	12
17,65833	12
17,66667	13
17,67500	13
17,68333	13
17,69167	12
17,70000	12
17,70833	12
17,71667	12
17,72500	12
17,73333	12
17,74167	12
17,75000	12
17,75833	13
17,76667	12
17,77500	12
17,78333	12
17,79167	12
17,80000	12
17,80833	12
17,81667	12
17,82500	12
17,83333	13
17,84167	13
17,85000	13
17,85833	13
17,86667	13
17,87500	13
17,88333	13
17,89167	13
17,90000	13
17,90833	13
17,91667	13
17,92500	13
17,93333	13
17,94167	13
17,95000	13
17,95833	13
17,96667	13
17,97500	13
17,98333	14
17,99167	14
18,00000	13
18,00833	13
18,01667	13
18,02500	13
18,03333	13
18,04167	13
18,05000	13
18,05833	13
18,06667	13
18,07500	13
18,08333	13
18,09167	13
18,10000	14
18,10833	14
18,11667	14
18,12500	14
18,13333	15
18,14167	14
18,15000	14
18,15833	14
18,16667	14
18,17500	14
18,18333	14
18,19167	14
18,20000	14
18,20833	14
18,21667	14
18,22500	14
18,23333	14
18,24167	14
18,25000	14
18,25833	14
18,26667	14
18,27500	14
18,28333	14
18,29167	15
18,30000	14
18,30833	15
18,31667	15
18,32500	14
18,33333	14
18,34167	14
18,35000	14
18,35833	14
18,36667	14
18,37500	14
18,38333	14
18,39167	14
18,40000	14
18,40833	14
18,41667	14
18,42500	14
18,43333	14
18,44167	14
18,45000	13
18,45833	13
18,46667	13
18,47500	13
18,48333	14
18,49167	14
18,50000	14
18,50833	13
18,51667	13
18,52500	13
18,53333	13
18,54167	13
18,55000	13
18,55833	13
18,56667	13
18,57500	12
18,58333	12
18,59167	12
18,60000	12
18,60833	12
18,61667	11
18,62500	11
18,63333	11
18,64167	10
18,65000	10
18,65833	10
18,66667	9
18,67500	8
18,68333	8
18,69167	8
18,70000	7
18,70833	7
18,71667	6
18,72500	6
18,73333	5
18,74167	4
18,75000	4
18,75833	3
18,76667	2
18,77500	1
18,78333	0
18,79167	-0
18,80000	-1
18,80833	-2
18,81667	-2
18,82500	-4
18,83333	-5
18,84167	-7
18,85000	-8
18,85833	-10
18,86667	-11
18,87500	-13
18,88333	-14
18,89167	-16
18,90000	-18
18,90833	-20
18,91667	-23
18,92500	-25
18,93333	-27
18,94167	-29
18,95000	-31
18,95833	-34
18,96667	-36
18,97500	-39
18,98333	-41
18,99167	-43
19,00000	-46
19,00833	-48
19,01667	-51
19,02500	-53
19,03333	-56
19,04167	-58
19,05000	-60
19,05833	-62
19,06667	-64
19,07500	-65
19,08333	-67
19,09167	-68
19,10000	-70
19,10833	-71
19,11667	-72
19,12500	-73
19,13333	-74
19,14167	-74
19,15000	-75
19,15833	-75
19,16667	-75
19,17500	-75
19,18333	-75
19,19167	-75
19,20000	-74
19,20833	-74
19,21667	-74
19,22500	-73
19,23333	-71
19,24167	-70
19,25000	-68
19,25833	-66
19,26667	-64
19,27500	-62
19,28333	-60
19,29167	-58
19,30000	-56
19,30833	-54
19,31667	-52
19,32500	-49
19,33333	-46
19,34167	-43
19,35000	-41
19,35833	-38
19,36667	-36
19,37500	-33
19,38333	-31
19,39167	-28
19,40000	-26
19,40833	-23
19,41667	-21
19,42500	-19
19,43333	-17
19,44167	-15
19,45000	-12
19,45833	-10
19,46667	-8
19,47500	-7
19,48333	-6
19,49167	-5
19,50000	-4
19,50833	-3
19,51667	-2
19,52500	-0
19,53333	0
19,54167	1
19,55000	2
19,55833	2
19,56667	3
19,57500	4
19,58333	4
19,59167	5
19,60000	6
19,60833	6
19,61667	7
19,62500	7
19,63333	7
19,64167	8
19,65000	8
19,65833	8
19,66667	9
19,67500	9
19,68333	10
19,69167	10
19,70000	10
19,70833	10
19,71667	10
19,72500	10
19,73333	10
19,74167	10
19,75000	10
19,75833	10
19,76667	10
19,77500	10
19,78333	10
19,79167	11
19,80000	11
19,80833	11
19,81667	12
19,82500	12
19,83333	11
19,84167	11
19,85000	11
19,85833	10
19,86667	10
19,87500	9
19,88333	8
19,89167	8
19,90000	8
19,90833	8
19,91667	8
19,92500	7
19,93333	7
19,94167	6
19,95000	6
19,95833	6
19,96667	5
19,97500	5
19,98333	4
19,99167	3
20,00000	3
20,00833	2
20,01667	2
20,02500	1
20,03333	-0
20,04167	-1
20,05000	-2
20,05833	-2
20,06667	-3
20,07500	-4
20,08333	-5
20,09167	-7
20,10000	-8
20,10833	-9
20,11667	-11
20,12500	-12
20,13333	-14
20,14167	-15
20,15000	-17
20,15833	-19
20,16667	-21
20,17500	-22
20,18333	-24
20,19167	-26
20,20000	-28
20,20833	-30
20,21667	-32
20,22500	-34
20,23333	-35
20,24167	-37
20,25000	-39
20,25833	-40
20,26667	-42
20,27500	-43
20,28333	-45
20,29167	-47
20,30000	-49
20,30833	-51
20,31667	-52
20,32500	-54
20,33333	-55
20,34167	-57
20,35000	-58
20,35833	-60
20,36667	-61
20,37500	-62
20,38333	-62
20,39167	-63
20,40000	-63
20,40833	-64
20,41667	-64
20,42500	-64
20,43333	-64
20,44167	-64
20,45000	-64
20,45833	-64
20,46667	-64
20,47500	-64
20,48333	-63
20,49167	-63
20,50000	-63
20,50833	-62
20,51667	-61
20,52500	-60
20,53333	-59
20,54167	-57
20,55000	-56
20,55833	-55
20,56667	-53
20,57500	-52
20,58333	-50
20,59167	-50
20,60000	-48
20,60833	-47
20,61667	-46
20,62500	-44
20,63333	-43
20,64167	-41
20,65000	-39
20,65833	-37
20,66667	-36
20,67500	-34
20,68333	-33
20,69167	-31
20,70000	-30
20,70833	-28
20,71667	-27
20,72500	-26
20,73333	-24
20,74167	-23
20,75000	-22
20,75833	-20
20,76667	-19
20,77500	-17
20,78333	-16
20,79167	-15
20,80000	-13
20,80833	-12
20,81667	-11
20,82500	-10
20,83333	-8
20,84167	-7
20,85000	-6
20,85833	-5
20,86667	-4
20,87500	-4
20,88333	-3
20,89167	-1
20,90000	-0
20,90833	0
20,91667	1
20,92500	1
20,93333	2
20,94167	3
20,95000	3
20,95833	4
20,96667	5
20,97500	6
20,98333	6
20,99167	6
21,00000	7
21,00833	7
21,01667	8
21,02500	9
21,03333	9
21,04167	9
21,05000	10
21,05833	10
21,06667	10
21,07500	11
21,08333	11
21,09167	11
21,10000	11
21,10833	11
21,11667	11
21,12500	12
21,13333	12
21,14167	12
21,15000	12
21,15833	12
21,16667	12
21,17500	12
21,18333	13
21,19167	13
21,20000	13
21,20833	13
21,21667	13
21,22500	14
21,23333	14
21,24167	14
21,25000	14
21,25833	14
21,26667	14
21,27500	14
21,28333	15
21,29167	15
21,30000	15
21,30833	15
21,31667	14
21,32500	14
21,33333	13
21,34167	13
21,35000	13
21,35833	14
21,36667	14
21,37500	14
21,38333	14
21,39167	14
21,40000	15
21,40833	15
21,41667	15
21,42500	15
21,43333	14
21,44167	14
21,45000	14
21,45833	14
21,46667	15
21,47500	15
21,48333	15
21,49167	15
21,50000	15
21,50833	15
21,51667	15
21,52500	15
21,53333	15
21,54167	15
21,55000	15
21,55833	15
21,56667	15
21,57500	15
21,58333	15
21,59167	14
21,60000	14
21,60833	14
21,61667	14
21,62500	14
21,63333	14
21,64167	14
21,65000	14
21,65833	14
21,66667	14
21,67500	14
21,68333	14
21,69167	14
21,70000	14
21,70833	14
21,71667	15
21,72500	15
21,73333	15
21,74167	15
21,75000	15
21,75833	15
21,76667	14
21,77500	14
21,78333	14
21,79167	15
21,80000	15
21,80833	15
21,81667	15
21,82500	15
21,83333	15
21,84167	15
21,85000	15
21,85833	15
21,86667	15
21,87500	15
21,88333	14
21,89167	14
21,90000	14
21,90833	14
21,91667	14
21,92500	14
21,93333	14
21,94167	14
21,95000	14
21,95833	14
21,96667	14
21,97500	14
21,98333	15
21,99167	15
22,00000	15
22,00833	15
22,01667	15
22,02500	15
22,03333	15
22,04167	15
22,05000	15
22,05833	15
22,06667	15
22,07500	16
22,08333	16
22,09167	16
22,10000	16
22,10833	16
22,11667	16
22,12500	16
22,13333	16
22,14167	16
22,15000	15
22,15833	15
22,16667	15
22,17500	15
22,18333	15
22,19167	15
22,20000	15
22,20833	15
22,21667	15
22,22500	15
22,23333	15
22,24167	15
22,25000	15
22,25833	15
22,26667	15
22,27500	15
22,28333	15
22,29167	16
22,30000	16
22,30833	16
22,31667	16
22,32500	16
22,33333	15
22,34167	15
22,35000	15
22,35833	15
22,36667	15
22,37500	14
22,38333	15
22,39167	15
22,40000	15
22,40833	14
22,41667	14
22,42500	14
22,43333	14
22,44167	14
22,45000	14
22,45833	14
22,46667	14
22,47500	14
22,48333	14
22,49167	14
22,50000	14
22,50833	14
22,51667	14
22,52500	14
22,53333	15
22,54167	14
22,55000	15
22,55833	15
22,56667	15
22,57500	15
22,58333	15
22,59167	15
22,60000	15
22,60833	15
22,61667	15
22,62500	15
22,63333	15
22,64167	15
22,65000	15
22,65833	15
22,66667	15
22,67500	15
22,68333	15
22,69167	14
22,70000	14
22,70833	14
22,71667	14
22,72500	14
22,73333	14
22,74167	15
22,75000	15
22,75833	15
22,76667	14
22,77500	14
22,78333	14
22,79167	14
22,80000	14
22,80833	14
22,81667	14
22,82500	14
22,83333	14
22,84167	15
22,85000	15
22,85833	15
22,86667	15
22,87500	15
22,88333	15
22,89167	15
22,90000	15
22,90833	15
22,91667	15
22,92500	15
22,93333	15
22,94167	15
22,95000	15
22,95833	15
22,96667	15
22,97500	15
22,98333	15
22,99167	15
23,00000	16
23,00833	16
23,01667	15
23,02500	15
23,03333	15
23,04167	15
23,05000	15
23,05833	15
23,06667	16
23,07500	16
23,08333	16
23,09167	16
23,10000	16
23,10833	16
23,11667	16
23,12500	16
23,13333	16
23,14167	16
23,15000	16
23,15833	16
23,16667	17
23,17500	17
23,18333	17
23,19167	17
23,20000	17
23,20833	17
23,21667	17
23,22500	18
23,23333	18
23,24167	19
23,25000	19
23,25833	19
23,26667	20
23,27500	20
23,28333	21
23,29167	22
23,30000	22
23,30833	23
23,31667	23
23,32500	24
23,33333	25
23,34167	25
23,35000	26
23,35833	26
23,36667	27
23,37500	28
23,38333	29
23,39167	30
23,40000	32
23,40833	33
23,41667	35
23,42500	36
23,43333	38
23,44167	40
23,45000	42
23,45833	44
23,46667	46
23,47500	48
23,48333	51
23,49167	54
23,50000	57
23,50833	60
23,51667	64
23,52500	67
23,53333	71
23,54167	76
23,55000	80
23,55833	84
23,56667	89
23,57500	94
23,58333	100
23,59167	106
23,60000	113
23,60833	120
23,61667	127
23,62500	135
23,63333	143
23,64167	151
23,65000	160
23,65833	170
23,66667	181
23,67500	192
23,68333	204
23,69167	217
23,70000	230
23,70833	244
23,71667	259
23,72500	275
23,73333	291
23,74167	309
23,75000	327
23,75833	346
23,76667	367
23,77500	388
23,78333	411
23,79167	435
23,80000	461
23,80833	488
23,81667	516
23,82500	546
23,83333	577
23,84167	609
23,85000	644
23,85833	680
23,86667	717
23,87500	756
23,88333	797
23,89167	839
23,90000	883
23,90833	928
23,91667	976
23,92500	1025
23,93333	1077
23,94167	1129
23,95000	1184
23,95833	1241
23,96667	1299
23,97500	1358
23,98333	1419
23,99167	1481
24,00000	1545
24,00833	1610
24,01667	1676
24,02500	1743
24,03333	1811
24,04167	1880
24,05000	1949
24,05833	2018
24,06667	2087
24,07500	2155
24,08333	2223
24,09167	2291
24,10000	2357
24,10833	2422
24,11667	2486
24,12500	2548
24,13333	2607
24,14167	2664
24,15000	2718
24,15833	2769
24,16667	2817
24,17500	2862
24,18333	2902
24,19167	2939
24,20000	2971
24,20833	2999
24,21667	3023
24,22500	3042
24,23333	3056
24,24167	3065
24,25000	3069
24,25833	3067
24,26667	3061
24,27500	3050
24,28333	3033
24,29167	3010
24,30000	2983
24,30833	2952
24,31667	2917
24,32500	2876
24,33333	2832
24,34167	2783
24,35000	2731
24,35833	2675
24,36667	2615
24,37500	2553
24,38333	2488
24,39167	2421
24,40000	2352
24,40833	2281
24,41667	2209
24,42500	2135
24,43333	2060
24,44167	1985
24,45000	1910
24,45833	1834
24,46667	1759
24,47500	1685
24,48333	1611
24,49167	1538
24,50000	1466
24,50833	1395
24,51667	1326
24,52500	1258
24,53333	1193
24,54167	1129
24,55000	1067
24,55833	1007
24,56667	950
24,57500	895
24,58333	842
24,59167	791
24,60000	742
24,60833	695
24,61667	650
24,62500	608
24,63333	568
24,64167	531
24,65000	495
24,65833	461
24,66667	429
24,67500	400
24,68333	372
24,69167	346
24,70000	322
24,70833	299
24,71667	278
24,72500	258
24,73333	240
24,74167	222
24,75000	206
24,75833	191
24,76667	178
24,77500	165
24,78333	153
24,79167	143
24,80000	133
24,80833	123
24,81667	115
24,82500	108
24,83333	100
24,84167	93
24,85000	88
24,85833	83
24,86667	78
24,87500	74
24,88333	70
24,89167	66
24,90000	63
24,90833	59
24,91667	56
24,92500	54
24,93333	51
24,94167	48
24,95000	46
24,95833	44
24,96667	42
24,97500	40
24,98333	39
24,99167	38
25,00000	36
25,00833	35
25,01667	34
25,02500	33
25,03333	32
25,04167	31
25,05000	30
25,05833	30
25,06667	29
25,07500	28
25,08333	28
25,09167	28
25,10000	27
25,10833	26
25,11667	26
25,12500	26
25,13333	26
25,14167	25
25,15000	25
25,15833	24
25,16667	24
25,17500	24
25,18333	23
25,19167	23
25,20000	23
25,20833	22
25,21667	22
25,22500	22
25,23333	22
25,24167	22
25,25000	22
25,25833	22
25,26667	21
25,27500	21
25,28333	21
25,29167	21
25,30000	21
25,30833	21
25,31667	21
25,32500	21
25,33333	21
25,34167	21
25,35000	20
25,35833	20
25,36667	20
25,37500	19
25,38333	19
25,39167	19
25,40000	19
25,40833	19
25,41667	19
25,42500	19
25,43333	19
25,44167	19
25,45000	19
25,45833	19
25,46667	18
25,47500	18
25,48333	19
25,49167	19
25,50000	19
25,50833	19
25,51667	19
25,52500	19
25,53333	19
25,54167	19
25,55000	19
25,55833	19
25,56667	19
25,57500	19
25,58333	19
25,59167	19
25,60000	19
25,60833	19
25,61667	19
25,62500	19
25,63333	19
25,64167	19
25,65000	19
25,65833	19
25,66667	19
25,67500	19
25,68333	19
25,69167	19
25,70000	19
25,70833	19
25,71667	19
25,72500	19
25,73333	19
25,74167	19
25,75000	19
25,75833	20
25,76667	20
25,77500	20
25,78333	20
25,79167	20
25,80000	20
25,80833	20
25,81667	20
25,82500	20
25,83333	20
25,84167	19
25,85000	19
25,85833	19
25,86667	19
25,87500	19
25,88333	19
25,89167	18
25,90000	18
25,90833	18
25,91667	18
25,92500	18
25,93333	18
25,94167	18
25,95000	18
25,95833	19
25,96667	19
25,97500	19
25,98333	19
25,99167	18
26,00000	18
26,00833	18
26,01667	18
26,02500	19
26,03333	19
26,04167	19
26,05000	19
26,05833	19
26,06667	19
26,07500	19
26,08333	19
26,09167	19
26,10000	18
26,10833	18
26,11667	18
26,12500	18
26,13333	18
26,14167	18
26,15000	18
26,15833	19
26,16667	19
26,17500	19
26,18333	19
26,19167	19
26,20000	19
26,20833	19
26,21667	18
26,22500	18
26,23333	18
26,24167	18
26,25000	18
26,25833	17
26,26667	17
26,27500	17
26,28333	17
26,29167	17
26,30000	17
26,30833	18
26,31667	18
26,32500	19
26,33333	19
26,34167	19
26,35000	19
26,35833	19
26,36667	18
26,37500	18
26,38333	18
26,39167	18
26,40000	18
26,40833	18
26,41667	18
26,42500	18
26,43333	18
26,44167	18
26,45000	18
26,45833	18
26,46667	18
26,47500	18
26,48333	18
26,49167	18
26,50000	18
26,50833	18
26,51667	17
26,52500	17
26,53333	18
26,54167	18
26,55000	18
26,55833	18
26,56667	18
26,57500	17
26,58333	18
26,59167	18
26,60000	18
26,60833	18
26,61667	18
26,62500	19
26,63333	19
26,64167	19
26,65000	20
26,65833	20
26,66667	20
26,67500	20
26,68333	20
26,69167	20
26,70000	19
26,70833	19
26,71667	19
26,72500	19
26,73333	19
26,74167	19
26,75000	19
26,75833	19
26,76667	19
26,77500	19
26,78333	19
26,79167	19
26,80000	19
26,80833	18
26,81667	18
26,82500	18
26,83333	18
26,84167	18
26,85000	18
26,85833	18
26,86667	19
26,87500	19
26,88333	19
26,89167	19
26,90000	18
26,90833	18
26,91667	18
26,92500	18
26,93333	18
26,94167	18
26,95000	18
26,95833	18
26,96667	18
26,97500	18
26,98333	19
26,99167	19
27,00000	19
27,00833	19
27,01667	19
27,02500	19
27,03333	19
27,04167	19
27,05000	19
27,05833	19
27,06667	19
27,07500	19
27,08333	19
27,09167	19
27,10000	19
27,10833	19
27,11667	19
27,12500	19
27,13333	19
27,14167	19
27,15000	19
27,15833	19
27,16667	19
27,17500	19
27,18333	19
27,19167	19
27,20000	19
27,20833	19
27,21667	19
27,22500	19
27,23333	19
27,24167	19
27,25000	19
27,25833	19
27,26667	19
27,27500	19
27,28333	19
27,29167	18
27,30000	18
27,30833	18
27,31667	18
27,32500	18
27,33333	18
27,34167	18
27,35000	18
27,35833	18
27,36667	18
27,37500	18
27,38333	18
27,39167	18
27,40000	18
27,40833	18
27,41667	17
27,42500	17
27,43333	17
27,44167	17
27,45000	17
27,45833	18
27,46667	18
27,47500	18
27,48333	18
27,49167	18
27,50000	18
27,50833	18
27,51667	18
27,52500	17
27,53333	17
27,54167	17
27,55000	17
27,55833	17
27,56667	16
27,57500	16
27,58333	16
27,59167	17
27,60000	17
27,60833	17
27,61667	17
27,62500	17
27,63333	17
27,64167	17
27,65000	17
27,65833	17
27,66667	18
27,67500	18
27,68333	18
27,69167	18
27,70000	18
27,70833	17
27,71667	17
27,72500	17
27,73333	17
27,74167	17
27,75000	17
27,75833	17
27,76667	17
27,77500	17
27,78333	17
27,79167	17
27,80000	17
27,80833	17
27,81667	17
27,82500	18
27,83333	18
27,84167	18
27,85000	18
27,85833	18
27,86667	18
27,87500	18
27,88333	19
27,89167	18
27,90000	18
27,90833	18
27,91667	18
27,92500	17
27,93333	17
27,94167	17
27,95000	17
27,95833	17
27,96667	18
27,97500	18
27,98333	17
27,99167	17
28,00000	17
28,00833	17
28,01667	18
28,02500	18
28,03333	18
28,04167	18
28,05000	18
28,05833	18
28,06667	19
28,07500	19
28,08333	18
28,09167	18
28,10000	19
28,10833	19
28,11667	19
28,12500	19
28,13333	19
28,14167	19
28,15000	19
28,15833	19
28,16667	18
28,17500	18
28,18333	19
28,19167	19
28,20000	19
28,20833	19
28,21667	18
28,22500	18
28,23333	19
28,24167	19
28,25000	19
28,25833	19
28,26667	20
28,27500	20
28,28333	20
28,29167	19
28,30000	20
28,30833	20
28,31667	20
28,32500	20
28,33333	20
28,34167	20
28,35000	20
28,35833	19
28,36667	20
28,37500	20
28,38333	20
28,39167	20
28,40000	20
28,40833	20
28,41667	20
28,42500	20
28,43333	20
28,44167	21
28,45000	20
28,45833	20
28,46667	20
28,47500	20
28,48333	20
28,49167	20
28,50000	20
28,50833	20
28,51667	20
28,52500	20
28,53333	20
28,54167	20
28,55000	20
28,55833	20
28,56667	20
28,57500	20
28,58333	20
28,59167	20
28,60000	19
28,60833	19
28,61667	19
28,62500	20
28,63333	20
28,64167	20
28,65000	20
28,65833	20
28,66667	20
28,67500	20
28,68333	20
28,69167	20
28,70000	19
28,70833	19
28,71667	19
28,72500	19
28,73333	19
28,74167	19
28,75000	19
28,75833	19
28,76667	19
28,77500	19
28,78333	19
28,79167	20
28,80000	20
28,80833	20
28,81667	20
28,82500	20
28,83333	19
28,84167	19
28,85000	19
28,85833	19
28,86667	19
28,87500	19
28,88333	19
28,89167	19
28,90000	19
28,90833	19
28,91667	19
28,92500	19
28,93333	19
28,94167	18
28,95000	18
28,95833	18
28,96667	18
28,97500	18
28,98333	19
28,99167	19
29,00000	19
29,00833	19
29,01667	19
29,02500	18
29,03333	19
29,04167	19
29,05000	19
29,05833	19
29,06667	19
29,07500	19
29,08333	19
29,09167	18
29,10000	18
29,10833	18
29,11667	18
29,12500	18
29,13333	18
29,14167	18
29,15000	18
29,15833	18
29,16667	19
29,17500	19
29,18333	19
29,19167	19
29,20000	18
29,20833	18
29,21667	18
29,22500	18
29,23333	18
29,24167	18
29,25000	18
29,25833	19
29,26667	19
29,27500	19
29,28333	19
29,29167	19
29,30000	19
29,30833	19
29,31667	19
29,32500	19
29,33333	19
29,34167	18
29,35000	18
29,35833	19
29,36667	19
29,37500	19
29,38333	19
29,39167	19
29,40000	19
29,40833	19
29,41667	19
29,42500	19
29,43333	19
29,44167	19
29,45000	19
29,45833	19
29,46667	19
29,47500	19
29,48333	19
29,49167	19
29,50000	19
29,50833	19
29,51667	19
29,52500	19
29,53333	19
29,54167	19
29,55000	19
29,55833	19
29,56667	19
29,57500	18
29,58333	18
29,59167	18
29,60000	18
29,60833	18
29,61667	18
29,62500	19
29,63333	19
29,64167	19
29,65000	19
29,65833	19
29,66667	19
29,67500	19
29,68333	20
29,69167	20
29,70000	20
29,70833	19
29,71667	19
29,72500	19
29,73333	19
29,74167	19
29,75000	19
29,75833	19
29,76667	18
29,77500	18
29,78333	19
29,79167	19
29,80000	19
29,80833	19
29,81667	19
29,82500	19
29,83333	19
29,84167	18
29,85000	18
29,85833	18
29,86667	18
29,87500	18
29,88333	18
29,89167	19
29,90000	19
29,90833	19
29,91667	19
29,92500	19
29,93333	19
29,94167	19
29,95000	18
29,95833	18
29,96667	18
29,97500	18
29,98333	18
29,99167	18
30,00000	18

