R.Time (min)	Intensity
0,00000	1
0,00833	1
0,01667	-0
0,02500	-1
0,03333	-1
0,04167	-2
0,05000	-2
0,05833	-3
0,06667	-3
0,07500	-2
0,08333	-2
0,09167	-2
0,10000	-1
0,10833	-1
0,11667	-1
0,12500	-0
0,13333	0
0,14167	1
0,15000	1
0,15833	1
0,16667	1
0,17500	2
0,18333	2
0,19167	2
0,20000	3
0,20833	3
0,21667	3
0,22500	3
0,23333	3
0,24167	3
0,25000	4
0,25833	4
0,26667	4
0,27500	4
0,28333	4
0,29167	4
0,30000	4
0,30833	4
0,31667	4
0,32500	4
0,33333	5
0,34167	5
0,35000	5
0,35833	6
0,36667	6
0,37500	6
0,38333	6
0,39167	6
0,40000	6
0,40833	5
0,41667	5
0,42500	4
0,43333	4
0,44167	3
0,45000	3
0,45833	3
0,46667	3
0,47500	3
0,48333	3
0,49167	3
0,50000	3
0,50833	3
0,51667	4
0,52500	4
0,53333	4
0,54167	4
0,55000	5
0,55833	5
0,56667	5
0,57500	5
0,58333	5
0,59167	5
0,60000	4
0,60833	4
0,61667	4
0,62500	4
0,63333	4
0,64167	4
0,65000	5
0,65833	5
0,66667	5
0,67500	6
0,68333	6
0,69167	6
0,70000	6
0,70833	6
0,71667	7
0,72500	7
0,73333	8
0,74167	8
0,75000	9
0,75833	9
0,76667	9
0,77500	9
0,78333	9
0,79167	9
0,80000	9
0,80833	9
0,81667	8
0,82500	8
0,83333	8
0,84167	8
0,85000	8
0,85833	8
0,86667	8
0,87500	8
0,88333	8
0,89167	8
0,90000	8
0,90833	8
0,91667	8
0,92500	8
0,93333	8
0,94167	8
0,95000	9
0,95833	8
0,96667	8
0,97500	8
0,98333	8
0,99167	9
1,00000	9
1,00833	9
1,01667	9
1,02500	8
1,03333	9
1,04167	9
1,05000	9
1,05833	9
1,06667	9
1,07500	9
1,08333	9
1,09167	9
1,10000	9
1,10833	9
1,11667	9
1,12500	9
1,13333	9
1,14167	9
1,15000	9
1,15833	9
1,16667	10
1,17500	10
1,18333	10
1,19167	10
1,20000	10
1,20833	11
1,21667	11
1,22500	11
1,23333	11
1,24167	12
1,25000	11
1,25833	11
1,26667	11
1,27500	11
1,28333	11
1,29167	11
1,30000	12
1,30833	11
1,31667	11
1,32500	11
1,33333	11
1,34167	11
1,35000	12
1,35833	12
1,36667	12
1,37500	11
1,38333	11
1,39167	11
1,40000	10
1,40833	11
1,41667	11
1,42500	11
1,43333	11
1,44167	11
1,45000	11
1,45833	11
1,46667	11
1,47500	11
1,48333	11
1,49167	11
1,50000	11
1,50833	11
1,51667	11
1,52500	11
1,53333	11
1,54167	11
1,55000	11
1,55833	11
1,56667	11
1,57500	12
1,58333	12
1,59167	13
1,60000	13
1,60833	13
1,61667	13
1,62500	13
1,63333	13
1,64167	13
1,65000	13
1,65833	14
1,66667	14
1,67500	14
1,68333	14
1,69167	13
1,70000	13
1,70833	13
1,71667	13
1,72500	14
1,73333	14
1,74167	14
1,75000	14
1,75833	14
1,76667	14
1,77500	14
1,78333	14
1,79167	14
1,80000	14
1,80833	14
1,81667	14
1,82500	14
1,83333	14
1,84167	14
1,85000	14
1,85833	14
1,86667	14
1,87500	14
1,88333	14
1,89167	15
1,90000	15
1,90833	15
1,91667	15
1,92500	15
1,93333	15
1,94167	15
1,95000	15
1,95833	15
1,96667	15
1,97500	15
1,98333	15
1,99167	16
2,00000	16
2,00833	16
2,01667	16
2,02500	16
2,03333	16
2,04167	15
2,05000	15
2,05833	15
2,06667	15
2,07500	15
2,08333	15
2,09167	15
2,10000	15
2,10833	15
2,11667	15
2,12500	16
2,13333	16
2,14167	15
2,15000	15
2,15833	15
2,16667	15
2,17500	15
2,18333	15
2,19167	15
2,20000	15
2,20833	16
2,21667	16
2,22500	16
2,23333	16
2,24167	16
2,25000	16
2,25833	16
2,26667	16
2,27500	16
2,28333	16
2,29167	16
2,30000	16
2,30833	16
2,31667	16
2,32500	16
2,33333	16
2,34167	17
2,35000	17
2,35833	17
2,36667	17
2,37500	17
2,38333	17
2,39167	17
2,40000	17
2,40833	16
2,41667	15
2,42500	15
2,43333	15
2,44167	15
2,45000	15
2,45833	15
2,46667	16
2,47500	16
2,48333	16
2,49167	16
2,50000	17
2,50833	17
2,51667	18
2,52500	18
2,53333	18
2,54167	18
2,55000	18
2,55833	18
2,56667	18
2,57500	18
2,58333	18
2,59167	18
2,60000	18
2,60833	18
2,61667	17
2,62500	17
2,63333	17
2,64167	17
2,65000	17
2,65833	17
2,66667	17
2,67500	17
2,68333	17
2,69167	17
2,70000	17
2,70833	18
2,71667	18
2,72500	18
2,73333	18
2,74167	18
2,75000	18
2,75833	18
2,76667	18
2,77500	19
2,78333	19
2,79167	19
2,80000	19
2,80833	19
2,81667	19
2,82500	19
2,83333	18
2,84167	18
2,85000	18
2,85833	18
2,86667	19
2,87500	19
2,88333	19
2,89167	19
2,90000	20
2,90833	20
2,91667	20
2,92500	20
2,93333	20
2,94167	19
2,95000	19
2,95833	19
2,96667	19
2,97500	19
2,98333	19
2,99167	19
3,00000	20
3,00833	20
3,01667	20
3,02500	20
3,03333	20
3,04167	20
3,05000	20
3,05833	20
3,06667	20
3,07500	19
3,08333	19
3,09167	19
3,10000	19
3,10833	19
3,11667	19
3,12500	19
3,13333	19
3,14167	19
3,15000	19
3,15833	20
3,16667	20
3,17500	20
3,18333	20
3,19167	20
3,20000	20
3,20833	20
3,21667	20
3,22500	20
3,23333	20
3,24167	20
3,25000	20
3,25833	20
3,26667	21
3,27500	21
3,28333	21
3,29167	21
3,30000	22
3,30833	22
3,31667	22
3,32500	21
3,33333	21
3,34167	21
3,35000	21
3,35833	21
3,36667	21
3,37500	21
3,38333	21
3,39167	21
3,40000	22
3,40833	22
3,41667	22
3,42500	22
3,43333	22
3,44167	22
3,45000	22
3,45833	22
3,46667	22
3,47500	22
3,48333	22
3,49167	22
3,50000	22
3,50833	22
3,51667	23
3,52500	23
3,53333	23
3,54167	23
3,55000	24
3,55833	24
3,56667	24
3,57500	24
3,58333	24
3,59167	23
3,60000	23
3,60833	23
3,61667	23
3,62500	23
3,63333	23
3,64167	23
3,65000	23
3,65833	24
3,66667	24
3,67500	25
3,68333	25
3,69167	25
3,70000	25
3,70833	26
3,71667	26
3,72500	26
3,73333	26
3,74167	26
3,75000	26
3,75833	26
3,76667	26
3,77500	26
3,78333	26
3,79167	26
3,80000	26
3,80833	27
3,81667	27
3,82500	27
3,83333	27
3,84167	27
3,85000	27
3,85833	27
3,86667	27
3,87500	27
3,88333	27
3,89167	27
3,90000	27
3,90833	28
3,91667	28
3,92500	28
3,93333	29
3,94167	29
3,95000	28
3,95833	28
3,96667	28
3,97500	28
3,98333	29
3,99167	29
4,00000	29
4,00833	29
4,01667	29
4,02500	29
4,03333	28
4,04167	29
4,05000	29
4,05833	29
4,06667	29
4,07500	28
4,08333	29
4,09167	29
4,10000	29
4,10833	29
4,11667	29
4,12500	29
4,13333	30
4,14167	30
4,15000	30
4,15833	30
4,16667	30
4,17500	29
4,18333	30
4,19167	30
4,20000	30
4,20833	30
4,21667	30
4,22500	30
4,23333	30
4,24167	30
4,25000	30
4,25833	30
4,26667	30
4,27500	30
4,28333	30
4,29167	29
4,30000	29
4,30833	29
4,31667	29
4,32500	29
4,33333	30
4,34167	30
4,35000	30
4,35833	30
4,36667	30
4,37500	30
4,38333	30
4,39167	30
4,40000	30
4,40833	30
4,41667	30
4,42500	30
4,43333	30
4,44167	30
4,45000	30
4,45833	30
4,46667	30
4,47500	31
4,48333	31
4,49167	31
4,50000	31
4,50833	31
4,51667	31
4,52500	31
4,53333	31
4,54167	31
4,55000	31
4,55833	31
4,56667	31
4,57500	30
4,58333	30
4,59167	30
4,60000	30
4,60833	30
4,61667	30
4,62500	31
4,63333	31
4,64167	31
4,65000	31
4,65833	31
4,66667	31
4,67500	31
4,68333	31
4,69167	31
4,70000	32
4,70833	32
4,71667	32
4,72500	32
4,73333	33
4,74167	33
4,75000	33
4,75833	33
4,76667	32
4,77500	33
4,78333	33
4,79167	33
4,80000	33
4,80833	32
4,81667	32
4,82500	32
4,83333	32
4,84167	32
4,85000	32
4,85833	32
4,86667	33
4,87500	33
4,88333	33
4,89167	34
4,90000	34
4,90833	34
4,91667	35
4,92500	35
4,93333	35
4,94167	35
4,95000	35
4,95833	35
4,96667	35
4,97500	34
4,98333	34
4,99167	34
5,00000	34
5,00833	34
5,01667	33
5,02500	33
5,03333	33
5,04167	33
5,05000	33
5,05833	33
5,06667	34
5,07500	34
5,08333	34
5,09167	34
5,10000	34
5,10833	34
5,11667	34
5,12500	33
5,13333	33
5,14167	33
5,15000	34
5,15833	34
5,16667	34
5,17500	34
5,18333	34
5,19167	34
5,20000	34
5,20833	35
5,21667	35
5,22500	35
5,23333	35
5,24167	36
5,25000	36
5,25833	36
5,26667	36
5,27500	36
5,28333	36
5,29167	36
5,30000	36
5,30833	36
5,31667	36
5,32500	35
5,33333	35
5,34167	35
5,35000	36
5,35833	36
5,36667	36
5,37500	36
5,38333	36
5,39167	36
5,40000	37
5,40833	37
5,41667	36
5,42500	37
5,43333	36
5,44167	36
5,45000	36
5,45833	36
5,46667	36
5,47500	36
5,48333	36
5,49167	36
5,50000	36
5,50833	36
5,51667	37
5,52500	37
5,53333	37
5,54167	38
5,55000	38
5,55833	38
5,56667	38
5,57500	39
5,58333	39
5,59167	39
5,60000	39
5,60833	39
5,61667	39
5,62500	39
5,63333	40
5,64167	40
5,65000	40
5,65833	41
5,66667	41
5,67500	41
5,68333	41
5,69167	41
5,70000	40
5,70833	40
5,71667	40
5,72500	40
5,73333	40
5,74167	40
5,75000	41
5,75833	41
5,76667	41
5,77500	41
5,78333	42
5,79167	42
5,80000	42
5,80833	42
5,81667	42
5,82500	42
5,83333	43
5,84167	43
5,85000	43
5,85833	44
5,86667	44
5,87500	44
5,88333	44
5,89167	44
5,90000	45
5,90833	45
5,91667	46
5,92500	47
5,93333	47
5,94167	47
5,95000	48
5,95833	49
5,96667	49
5,97500	50
5,98333	51
5,99167	51
6,00000	52
6,00833	53
6,01667	54
6,02500	55
6,03333	56
6,04167	57
6,05000	59
6,05833	61
6,06667	63
6,07500	66
6,08333	71
6,09167	76
6,10000	84
6,10833	94
6,11667	110
6,12500	132
6,13333	165
6,14167	213
6,15000	284
6,15833	387
6,16667	537
6,17500	748
6,18333	1044
6,19167	1451
6,20000	1999
6,20833	2726
6,21667	3672
6,22500	4883
6,23333	6406
6,24167	8292
6,25000	10588
6,25833	13343
6,26667	16604
6,27500	20412
6,28333	24804
6,29167	29812
6,30000	35463
6,30833	41778
6,31667	48772
6,32500	56454
6,33333	64827
6,34167	73892
6,35000	83642
6,35833	94065
6,36667	105155
6,37500	116906
6,38333	129311
6,39167	142356
6,40000	156026
6,40833	170305
6,41667	185175
6,42500	200611
6,43333	216593
6,44167	233100
6,45000	250109
6,45833	267594
6,46667	285531
6,47500	303896
6,48333	322665
6,49167	341806
6,50000	361294
6,50833	381102
6,51667	401203
6,52500	421566
6,53333	442163
6,54167	462966
6,55000	483945
6,55833	505060
6,56667	526278
6,57500	547559
6,58333	568857
6,59167	590113
6,60000	611249
6,60833	632138
6,61667	652538
6,62500	671998
6,63333	689748
6,64167	704611
6,65000	715018
6,65833	719171
6,66667	715348
6,67500	702278
6,68333	679451
6,69167	647259
6,70000	606916
6,70833	560250
6,71667	509429
6,72500	456677
6,73333	404020
6,74167	353150
6,75000	305349
6,75833	261483
6,76667	222027
6,77500	187138
6,78333	156735
6,79167	130575
6,80000	108303
6,80833	89513
6,81667	73784
6,82500	60706
6,83333	49895
6,84167	41001
6,85000	33714
6,85833	27765
6,86667	22920
6,87500	18982
6,88333	15785
6,89167	13191
6,90000	11085
6,90833	9374
6,91667	7981
6,92500	6843
6,93333	5911
6,94167	5145
6,95000	4510
6,95833	3983
6,96667	3542
6,97500	3170
6,98333	2856
6,99167	2588
7,00000	2359
7,00833	2160
7,01667	1988
7,02500	1838
7,03333	1707
7,04167	1590
7,05000	1487
7,05833	1395
7,06667	1313
7,07500	1239
7,08333	1172
7,09167	1111
7,10000	1056
7,10833	1006
7,11667	959
7,12500	916
7,13333	877
7,14167	841
7,15000	807
7,15833	776
7,16667	748
7,17500	721
7,18333	696
7,19167	673
7,20000	651
7,20833	630
7,21667	610
7,22500	592
7,23333	574
7,24167	557
7,25000	542
7,25833	527
7,26667	513
7,27500	500
7,28333	487
7,29167	475
7,30000	464
7,30833	453
7,31667	443
7,32500	433
7,33333	423
7,34167	414
7,35000	405
7,35833	397
7,36667	389
7,37500	381
7,38333	373
7,39167	366
7,40000	359
7,40833	353
7,41667	346
7,42500	340
7,43333	335
7,44167	329
7,45000	324
7,45833	318
7,46667	313
7,47500	308
7,48333	303
7,49167	298
7,50000	294
7,50833	290
7,51667	285
7,52500	281
7,53333	277
7,54167	273
7,55000	270
7,55833	266
7,56667	263
7,57500	260
7,58333	256
7,59167	253
7,60000	249
7,60833	246
7,61667	243
7,62500	240
7,63333	237
7,64167	235
7,65000	232
7,65833	229
7,66667	226
7,67500	223
7,68333	221
7,69167	219
7,70000	216
7,70833	214
7,71667	212
7,72500	210
7,73333	208
7,74167	206
7,75000	204
7,75833	202
7,76667	200
7,77500	199
7,78333	197
7,79167	195
7,80000	193
7,80833	192
7,81667	190
7,82500	188
7,83333	187
7,84167	185
7,85000	183
7,85833	182
7,86667	180
7,87500	179
7,88333	177
7,89167	176
7,90000	175
7,90833	173
7,91667	172
7,92500	170
7,93333	169
7,94167	168
7,95000	167
7,95833	166
7,96667	165
7,97500	164
7,98333	163
7,99167	162
8,00000	161
8,00833	160
8,01667	159
8,02500	158
8,03333	157
8,04167	156
8,05000	155
8,05833	154
8,06667	153
8,07500	152
8,08333	151
8,09167	150
8,10000	149
8,10833	149
8,11667	148
8,12500	147
8,13333	146
8,14167	145
8,15000	144
8,15833	143
8,16667	143
8,17500	142
8,18333	142
8,19167	142
8,20000	141
8,20833	141
8,21667	140
8,22500	140
8,23333	139
8,24167	138
8,25000	137
8,25833	137
8,26667	136
8,27500	135
8,28333	135
8,29167	135
8,30000	134
8,30833	134
8,31667	133
8,32500	133
8,33333	133
8,34167	132
8,35000	131
8,35833	131
8,36667	130
8,37500	130
8,38333	129
8,39167	129
8,40000	129
8,40833	128
8,41667	128
8,42500	128
8,43333	127
8,44167	127
8,45000	126
8,45833	126
8,46667	126
8,47500	125
8,48333	125
8,49167	125
8,50000	124
8,50833	124
8,51667	123
8,52500	123
8,53333	123
8,54167	122
8,55000	122
8,55833	121
8,56667	121
8,57500	120
8,58333	120
8,59167	120
8,60000	119
8,60833	119
8,61667	119
8,62500	119
8,63333	118
8,64167	118
8,65000	118
8,65833	117
8,66667	117
8,67500	117
8,68333	117
8,69167	116
8,70000	116
8,70833	116
8,71667	115
8,72500	115
8,73333	115
8,74167	114
8,75000	114
8,75833	114
8,76667	114
8,77500	113
8,78333	113
8,79167	113
8,80000	113
8,80833	113
8,81667	112
8,82500	112
8,83333	112
8,84167	112
8,85000	111
8,85833	111
8,86667	111
8,87500	110
8,88333	110
8,89167	110
8,90000	110
8,90833	110
8,91667	110
8,92500	110
8,93333	111
8,94167	111
8,95000	112
8,95833	112
8,96667	113
8,97500	114
8,98333	115
8,99167	115
9,00000	116
9,00833	117
9,01667	118
9,02500	119
9,03333	120
9,04167	122
9,05000	123
9,05833	125
9,06667	126
9,07500	127
9,08333	128
9,09167	129
9,10000	130
9,10833	130
9,11667	131
9,12500	130
9,13333	129
9,14167	128
9,15000	127
9,15833	126
9,16667	124
9,17500	123
9,18333	122
9,19167	120
9,20000	119
9,20833	118
9,21667	116
9,22500	115
9,23333	113
9,24167	112
9,25000	111
9,25833	109
9,26667	108
9,27500	107
9,28333	107
9,29167	106
9,30000	105
9,30833	105
9,31667	104
9,32500	104
9,33333	104
9,34167	103
9,35000	103
9,35833	103
9,36667	103
9,37500	102
9,38333	102
9,39167	102
9,40000	102
9,40833	101
9,41667	101
9,42500	101
9,43333	100
9,44167	100
9,45000	100
9,45833	99
9,46667	99
9,47500	99
9,48333	99
9,49167	98
9,50000	98
9,50833	98
9,51667	97
9,52500	97
9,53333	97
9,54167	97
9,55000	97
9,55833	97
9,56667	96
9,57500	96
9,58333	96
9,59167	96
9,60000	96
9,60833	95
9,61667	95
9,62500	95
9,63333	95
9,64167	95
9,65000	95
9,65833	94
9,66667	94
9,67500	94
9,68333	94
9,69167	94
9,70000	94
9,70833	94
9,71667	94
9,72500	94
9,73333	94
9,74167	93
9,75000	93
9,75833	93
9,76667	93
9,77500	93
9,78333	93
9,79167	93
9,80000	92
9,80833	92
9,81667	92
9,82500	92
9,83333	92
9,84167	92
9,85000	92
9,85833	92
9,86667	92
9,87500	92
9,88333	92
9,89167	92
9,90000	92
9,90833	92
9,91667	92
9,92500	92
9,93333	91
9,94167	91
9,95000	91
9,95833	91
9,96667	91
9,97500	91
9,98333	91
9,99167	92
10,00000	92
10,00833	92
10,01667	92
10,02500	92
10,03333	93
10,04167	93
10,05000	92
10,05833	92
10,06667	92
10,07500	91
10,08333	91
10,09167	91
10,10000	91
10,10833	91
10,11667	91
10,12500	91
10,13333	90
10,14167	90
10,15000	90
10,15833	90
10,16667	90
10,17500	90
10,18333	90
10,19167	90
10,20000	90
10,20833	90
10,21667	90
10,22500	90
10,23333	90
10,24167	90
10,25000	90
10,25833	89
10,26667	89
10,27500	89
10,28333	89
10,29167	90
10,30000	90
10,30833	90
10,31667	90
10,32500	90
10,33333	90
10,34167	90
10,35000	89
10,35833	89
10,36667	89
10,37500	89
10,38333	89
10,39167	90
10,40000	90
10,40833	90
10,41667	90
10,42500	90
10,43333	90
10,44167	90
10,45000	90
10,45833	90
10,46667	90
10,47500	90
10,48333	91
10,49167	91
10,50000	91
10,50833	91
10,51667	91
10,52500	90
10,53333	90
10,54167	90
10,55000	90
10,55833	90
10,56667	90
10,57500	90
10,58333	90
10,59167	90
10,60000	90
10,60833	90
10,61667	89
10,62500	89
10,63333	89
10,64167	89
10,65000	89
10,65833	89
10,66667	89
10,67500	89
10,68333	89
10,69167	89
10,70000	89
10,70833	89
10,71667	90
10,72500	90
10,73333	90
10,74167	90
10,75000	90
10,75833	90
10,76667	90
10,77500	90
10,78333	89
10,79167	89
10,80000	89
10,80833	88
10,81667	88
10,82500	88
10,83333	88
10,84167	88
10,85000	88
10,85833	88
10,86667	88
10,87500	88
10,88333	87
10,89167	87
10,90000	87
10,90833	88
10,91667	88
10,92500	88
10,93333	88
10,94167	88
10,95000	88
10,95833	88
10,96667	88
10,97500	88
10,98333	88
10,99167	89
11,00000	89
11,00833	89
11,01667	89
11,02500	89
11,03333	90
11,04167	90
11,05000	91
11,05833	91
11,06667	92
11,07500	92
11,08333	92
11,09167	93
11,10000	94
11,10833	94
11,11667	95
11,12500	97
11,13333	98
11,14167	99
11,15000	101
11,15833	103
11,16667	106
11,17500	108
11,18333	112
11,19167	115
11,20000	119
11,20833	124
11,21667	130
11,22500	136
11,23333	143
11,24167	150
11,25000	158
11,25833	166
11,26667	176
11,27500	186
11,28333	196
11,29167	207
11,30000	218
11,30833	230
11,31667	241
11,32500	253
11,33333	264
11,34167	274
11,35000	284
11,35833	293
11,36667	302
11,37500	309
11,38333	315
11,39167	319
11,40000	322
11,40833	323
11,41667	323
11,42500	321
11,43333	318
11,44167	313
11,45000	307
11,45833	300
11,46667	292
11,47500	283
11,48333	273
11,49167	264
11,50000	253
11,50833	243
11,51667	232
11,52500	222
11,53333	212
11,54167	202
11,55000	192
11,55833	182
11,56667	174
11,57500	166
11,58333	158
11,59167	151
11,60000	145
11,60833	139
11,61667	134
11,62500	129
11,63333	125
11,64167	121
11,65000	118
11,65833	115
11,66667	112
11,67500	109
11,68333	107
11,69167	105
11,70000	104
11,70833	103
11,71667	101
11,72500	100
11,73333	100
11,74167	99
11,75000	98
11,75833	98
11,76667	97
11,77500	96
11,78333	95
11,79167	95
11,80000	95
11,80833	94
11,81667	94
11,82500	94
11,83333	94
11,84167	94
11,85000	94
11,85833	94
11,86667	94
11,87500	94
11,88333	94
11,89167	94
11,90000	93
11,90833	93
11,91667	93
11,92500	93
11,93333	93
11,94167	93
11,95000	94
11,95833	94
11,96667	94
11,97500	94
11,98333	94
11,99167	94
12,00000	94
12,00833	94
12,01667	93
12,02500	93
12,03333	93
12,04167	93
12,05000	93
12,05833	94
12,06667	94
12,07500	94
12,08333	95
12,09167	95
12,10000	95
12,10833	95
12,11667	95
12,12500	95
12,13333	95
12,14167	94
12,15000	94
12,15833	94
12,16667	94
12,17500	94
12,18333	94
12,19167	94
12,20000	95
12,20833	95
12,21667	95
12,22500	95
12,23333	95
12,24167	95
12,25000	95
12,25833	96
12,26667	96
12,27500	96
12,28333	96
12,29167	96
12,30000	96
12,30833	96
12,31667	96
12,32500	97
12,33333	97
12,34167	97
12,35000	97
12,35833	97
12,36667	97
12,37500	97
12,38333	97
12,39167	97
12,40000	97
12,40833	97
12,41667	97
12,42500	97
12,43333	97
12,44167	97
12,45000	97
12,45833	97
12,46667	98
12,47500	98
12,48333	98
12,49167	98
12,50000	98
12,50833	98
12,51667	98
12,52500	98
12,53333	98
12,54167	98
12,55000	98
12,55833	98
12,56667	98
12,57500	98
12,58333	98
12,59167	98
12,60000	98
12,60833	99
12,61667	99
12,62500	98
12,63333	98
12,64167	98
12,65000	98
12,65833	98
12,66667	98
12,67500	98
12,68333	98
12,69167	97
12,70000	97
12,70833	97
12,71667	97
12,72500	98
12,73333	98
12,74167	97
12,75000	97
12,75833	97
12,76667	97
12,77500	97
12,78333	97
12,79167	97
12,80000	97
12,80833	98
12,81667	98
12,82500	98
12,83333	98
12,84167	98
12,85000	97
12,85833	97
12,86667	97
12,87500	97
12,88333	98
12,89167	98
12,90000	98
12,90833	98
12,91667	98
12,92500	98
12,93333	98
12,94167	98
12,95000	99
12,95833	98
12,96667	99
12,97500	99
12,98333	98
12,99167	98
13,00000	98
13,00833	98
13,01667	98
13,02500	98
13,03333	98
13,04167	98
13,05000	98
13,05833	98
13,06667	98
13,07500	98
13,08333	98
13,09167	98
13,10000	98
13,10833	98
13,11667	97
13,12500	97
13,13333	97
13,14167	97
13,15000	97
13,15833	97
13,16667	97
13,17500	98
13,18333	98
13,19167	98
13,20000	98
13,20833	98
13,21667	98
13,22500	99
13,23333	99
13,24167	99
13,25000	99
13,25833	99
13,26667	99
13,27500	99
13,28333	99
13,29167	99
13,30000	99
13,30833	99
13,31667	99
13,32500	99
13,33333	99
13,34167	100
13,35000	100
13,35833	100
13,36667	100
13,37500	101
13,38333	100
13,39167	100
13,40000	100
13,40833	100
13,41667	100
13,42500	100
13,43333	100
13,44167	100
13,45000	100
13,45833	100
13,46667	100
13,47500	100
13,48333	101
13,49167	101
13,50000	102
13,50833	102
13,51667	102
13,52500	102
13,53333	102
13,54167	102
13,55000	102
13,55833	102
13,56667	101
13,57500	102
13,58333	102
13,59167	102
13,60000	102
13,60833	102
13,61667	102
13,62500	102
13,63333	103
13,64167	102
13,65000	102
13,65833	102
13,66667	102
13,67500	102
13,68333	103
13,69167	103
13,70000	103
13,70833	103
13,71667	103
13,72500	103
13,73333	104
13,74167	104
13,75000	104
13,75833	104
13,76667	104
13,77500	104
13,78333	104
13,79167	104
13,80000	104
13,80833	104
13,81667	104
13,82500	104
13,83333	104
13,84167	104
13,85000	104
13,85833	104
13,86667	104
13,87500	104
13,88333	103
13,89167	103
13,90000	103
13,90833	103
13,91667	103
13,92500	102
13,93333	103
13,94167	103
13,95000	103
13,95833	103
13,96667	103
13,97500	104
13,98333	104
13,99167	104
14,00000	104
14,00833	104
14,01667	104
14,02500	104
14,03333	104
14,04167	104
14,05000	104
14,05833	104
14,06667	105
14,07500	105
14,08333	105
14,09167	105
14,10000	105
14,10833	105
14,11667	106
14,12500	106
14,13333	106
14,14167	106
14,15000	107
14,15833	107
14,16667	107
14,17500	107
14,18333	107
14,19167	107
14,20000	107
14,20833	107
14,21667	107
14,22500	108
14,23333	108
14,24167	108
14,25000	109
14,25833	109
14,26667	109
14,27500	110
14,28333	110
14,29167	110
14,30000	111
14,30833	111
14,31667	111
14,32500	111
14,33333	111
14,34167	111
14,35000	111
14,35833	111
14,36667	111
14,37500	111
14,38333	111
14,39167	111
14,40000	111
14,40833	111
14,41667	110
14,42500	110
14,43333	109
14,44167	109
14,45000	109
14,45833	110
14,46667	110
14,47500	110
14,48333	110
14,49167	110
14,50000	110
14,50833	110
14,51667	110
14,52500	110
14,53333	110
14,54167	110
14,55000	110
14,55833	110
14,56667	110
14,57500	110
14,58333	109
14,59167	109
14,60000	109
14,60833	109
14,61667	109
14,62500	109
14,63333	109
14,64167	108
14,65000	108
14,65833	108
14,66667	108
14,67500	109
14,68333	108
14,69167	108
14,70000	108
14,70833	108
14,71667	108
14,72500	108
14,73333	108
14,74167	108
14,75000	108
14,75833	108
14,76667	108
14,77500	108
14,78333	109
14,79167	109
14,80000	109
14,80833	109
14,81667	110
14,82500	110
14,83333	110
14,84167	110
14,85000	110
14,85833	110
14,86667	111
14,87500	111
14,88333	111
14,89167	111
14,90000	111
14,90833	111
14,91667	111
14,92500	111
14,93333	112
14,94167	112
14,95000	112
14,95833	112
14,96667	112
14,97500	112
14,98333	112
14,99167	113
15,00000	113
15,00833	113
15,01667	114
15,02500	114
15,03333	114
15,04167	114
15,05000	114
15,05833	114
15,06667	114
15,07500	114
15,08333	113
15,09167	113
15,10000	113
15,10833	114
15,11667	114
15,12500	114
15,13333	114
15,14167	114
15,15000	114
15,15833	114
15,16667	113
15,17500	113
15,18333	113
15,19167	112
15,20000	112
15,20833	112
15,21667	112
15,22500	113
15,23333	113
15,24167	113
15,25000	113
15,25833	113
15,26667	113
15,27500	113
15,28333	113
15,29167	113
15,30000	113
15,30833	113
15,31667	113
15,32500	113
15,33333	114
15,34167	114
15,35000	114
15,35833	114
15,36667	114
15,37500	114
15,38333	114
15,39167	114
15,40000	114
15,40833	114
15,41667	114
15,42500	114
15,43333	114
15,44167	114
15,45000	114
15,45833	113
15,46667	114
15,47500	114
15,48333	114
15,49167	114
15,50000	114
15,50833	114
15,51667	114
15,52500	115
15,53333	115
15,54167	114
15,55000	114
15,55833	114
15,56667	114
15,57500	114
15,58333	115
15,59167	115
15,60000	115
15,60833	115
15,61667	115
15,62500	115
15,63333	115
15,64167	115
15,65000	116
15,65833	116
15,66667	116
15,67500	116
15,68333	116
15,69167	116
15,70000	116
15,70833	116
15,71667	116
15,72500	116
15,73333	116
15,74167	116
15,75000	116
15,75833	116
15,76667	116
15,77500	116
15,78333	116
15,79167	116
15,80000	116
15,80833	116
15,81667	116
15,82500	116
15,83333	117
15,84167	117
15,85000	117
15,85833	117
15,86667	117
15,87500	117
15,88333	117
15,89167	117
15,90000	117
15,90833	117
15,91667	117
15,92500	117
15,93333	117
15,94167	117
15,95000	117
15,95833	117
15,96667	118
15,97500	118
15,98333	118
15,99167	119
16,00000	119
16,00833	119
16,01667	119
16,02500	119
16,03333	119
16,04167	119
16,05000	119
16,05833	119
16,06667	119
16,07500	118
16,08333	118
16,09167	119
16,10000	119
16,10833	119
16,11667	119
16,12500	119
16,13333	119
16,14167	120
16,15000	120
16,15833	120
16,16667	120
16,17500	120
16,18333	120
16,19167	120
16,20000	119
16,20833	119
16,21667	119
16,22500	119
16,23333	120
16,24167	120
16,25000	120
16,25833	119
16,26667	119
16,27500	119
16,28333	119
16,29167	119
16,30000	119
16,30833	119
16,31667	119
16,32500	119
16,33333	119
16,34167	120
16,35000	120
16,35833	121
16,36667	121
16,37500	121
16,38333	121
16,39167	121
16,40000	121
16,40833	121
16,41667	120
16,42500	120
16,43333	120
16,44167	120
16,45000	120
16,45833	120
16,46667	121
16,47500	121
16,48333	121
16,49167	121
16,50000	121
16,50833	121
16,51667	121
16,52500	121
16,53333	121
16,54167	121
16,55000	121
16,55833	121
16,56667	121
16,57500	121
16,58333	121
16,59167	122
16,60000	122
16,60833	122
16,61667	122
16,62500	122
16,63333	122
16,64167	121
16,65000	121
16,65833	121
16,66667	122
16,67500	122
16,68333	122
16,69167	122
16,70000	122
16,70833	122
16,71667	123
16,72500	123
16,73333	123
16,74167	123
16,75000	123
16,75833	123
16,76667	123
16,77500	123
16,78333	123
16,79167	123
16,80000	123
16,80833	123
16,81667	123
16,82500	123
16,83333	123
16,84167	123
16,85000	123
16,85833	123
16,86667	123
16,87500	123
16,88333	123
16,89167	124
16,90000	124
16,90833	124
16,91667	124
16,92500	124
16,93333	124
16,94167	124
16,95000	125
16,95833	125
16,96667	125
16,97500	125
16,98333	125
16,99167	126
17,00000	125
17,00833	125
17,01667	125
17,02500	125
17,03333	125
17,04167	125
17,05000	125
17,05833	125
17,06667	124
17,07500	124
17,08333	124
17,09167	124
17,10000	124
17,10833	124
17,11667	125
17,12500	125
17,13333	125
17,14167	125
17,15000	125
17,15833	125
17,16667	125
17,17500	126
17,18333	125
17,19167	125
17,20000	125
17,20833	125
17,21667	125
17,22500	125
17,23333	125
17,24167	126
17,25000	126
17,25833	126
17,26667	126
17,27500	127
17,28333	127
17,29167	127
17,30000	128
17,30833	128
17,31667	128
17,32500	128
17,33333	128
17,34167	127
17,35000	127
17,35833	127
17,36667	127
17,37500	127
17,38333	128
17,39167	128
17,40000	128
17,40833	128
17,41667	128
17,42500	128
17,43333	129
17,44167	129
17,45000	129
17,45833	129
17,46667	129
17,47500	129
17,48333	129
17,49167	129
17,50000	129
17,50833	128
17,51667	128
17,52500	128
17,53333	128
17,54167	128
17,55000	128
17,55833	128
17,56667	128
17,57500	128
17,58333	128
17,59167	128
17,60000	128
17,60833	128
17,61667	128
17,62500	128
17,63333	128
17,64167	128
17,65000	128
17,65833	128
17,66667	128
17,67500	129
17,68333	129
17,69167	129
17,70000	129
17,70833	128
17,71667	128
17,72500	128
17,73333	128
17,74167	128
17,75000	129
17,75833	129
17,76667	129
17,77500	129
17,78333	129
17,79167	129
17,80000	130
17,80833	130
17,81667	130
17,82500	130
17,83333	130
17,84167	130
17,85000	130
17,85833	130
17,86667	130
17,87500	130
17,88333	130
17,89167	131
17,90000	131
17,90833	131
17,91667	131
17,92500	131
17,93333	131
17,94167	131
17,95000	131
17,95833	130
17,96667	130
17,97500	130
17,98333	130
17,99167	130
18,00000	130
18,00833	130
18,01667	131
18,02500	131
18,03333	131
18,04167	131
18,05000	131
18,05833	131
18,06667	131
18,07500	131
18,08333	131
18,09167	131
18,10000	132
18,10833	132
18,11667	132
18,12500	132
18,13333	131
18,14167	132
18,15000	132
18,15833	132
18,16667	132
18,17500	132
18,18333	133
18,19167	133
18,20000	133
18,20833	133
18,21667	133
18,22500	133
18,23333	132
18,24167	132
18,25000	132
18,25833	133
18,26667	133
18,27500	132
18,28333	132
18,29167	132
18,30000	132
18,30833	133
18,31667	133
18,32500	133
18,33333	133
18,34167	133
18,35000	133
18,35833	133
18,36667	133
18,37500	133
18,38333	133
18,39167	134
18,40000	134
18,40833	134
18,41667	134
18,42500	134
18,43333	134
18,44167	134
18,45000	134
18,45833	133
18,46667	133
18,47500	133
18,48333	133
18,49167	133
18,50000	134
18,50833	134
18,51667	134
18,52500	134
18,53333	134
18,54167	133
18,55000	133
18,55833	134
18,56667	134
18,57500	134
18,58333	134
18,59167	133
18,60000	133
18,60833	133
18,61667	133
18,62500	133
18,63333	132
18,64167	132
18,65000	132
18,65833	132
18,66667	132
18,67500	131
18,68333	131
18,69167	131
18,70000	130
18,70833	130
18,71667	129
18,72500	129
18,73333	128
18,74167	127
18,75000	127
18,75833	126
18,76667	125
18,77500	125
18,78333	123
18,79167	121
18,80000	120
18,80833	118
18,81667	116
18,82500	114
18,83333	112
18,84167	110
18,85000	108
18,85833	106
18,86667	104
18,87500	102
18,88333	99
18,89167	96
18,90000	93
18,90833	91
18,91667	87
18,92500	84
18,93333	81
18,94167	78
18,95000	75
18,95833	72
18,96667	69
18,97500	65
18,98333	62
18,99167	59
19,00000	55
19,00833	52
19,01667	49
19,02500	46
19,03333	42
19,04167	39
19,05000	36
19,05833	33
19,06667	31
19,07500	28
19,08333	26
19,09167	24
19,10000	21
19,10833	19
19,11667	17
19,12500	15
19,13333	14
19,14167	13
19,15000	12
19,15833	12
19,16667	11
19,17500	11
19,18333	12
19,19167	12
19,20000	13
19,20833	14
19,21667	16
19,22500	17
19,23333	19
19,24167	21
19,25000	23
19,25833	26
19,26667	29
19,27500	32
19,28333	35
19,29167	38
19,30000	41
19,30833	44
19,31667	47
19,32500	51
19,33333	54
19,34167	57
19,35000	61
19,35833	64
19,36667	68
19,37500	72
19,38333	76
19,39167	79
19,40000	82
19,40833	85
19,41667	89
19,42500	91
19,43333	94
19,44167	97
19,45000	100
19,45833	102
19,46667	104
19,47500	107
19,48333	109
19,49167	111
19,50000	113
19,50833	115
19,51667	117
19,52500	119
19,53333	120
19,54167	122
19,55000	124
19,55833	125
19,56667	127
19,57500	128
19,58333	130
19,59167	131
19,60000	131
19,60833	132
19,61667	132
19,62500	133
19,63333	133
19,64167	133
19,65000	134
19,65833	134
19,66667	135
19,67500	136
19,68333	136
19,69167	136
19,70000	137
19,70833	137
19,71667	137
19,72500	137
19,73333	137
19,74167	137
19,75000	137
19,75833	137
19,76667	137
19,77500	138
19,78333	138
19,79167	138
19,80000	139
19,80833	139
19,81667	139
19,82500	138
19,83333	138
19,84167	138
19,85000	138
19,85833	138
19,86667	138
19,87500	138
19,88333	138
19,89167	138
19,90000	138
19,90833	138
19,91667	138
19,92500	138
19,93333	137
19,94167	137
19,95000	137
19,95833	137
19,96667	137
19,97500	137
19,98333	136
19,99167	135
20,00000	135
20,00833	135
20,01667	134
20,02500	134
20,03333	133
20,04167	133
20,05000	132
20,05833	132
20,06667	131
20,07500	131
20,08333	130
20,09167	130
20,10000	129
20,10833	128
20,11667	128
20,12500	127
20,13333	127
20,14167	126
20,15000	126
20,15833	125
20,16667	123
20,17500	122
20,18333	121
20,19167	120
20,20000	119
20,20833	117
20,21667	116
20,22500	114
20,23333	113
20,24167	112
20,25000	110
20,25833	109
20,26667	107
20,27500	106
20,28333	105
20,29167	103
20,30000	102
20,30833	100
20,31667	99
20,32500	98
20,33333	96
20,34167	95
20,35000	94
20,35833	93
20,36667	92
20,37500	91
20,38333	90
20,39167	89
20,40000	88
20,40833	87
20,41667	86
20,42500	86
20,43333	85
20,44167	84
20,45000	84
20,45833	83
20,46667	83
20,47500	82
20,48333	82
20,49167	82
20,50000	82
20,50833	82
20,51667	82
20,52500	82
20,53333	82
20,54167	82
20,55000	82
20,55833	83
20,56667	83
20,57500	84
20,58333	85
20,59167	85
20,60000	86
20,60833	87
20,61667	88
20,62500	89
20,63333	89
20,64167	90
20,65000	91
20,65833	92
20,66667	93
20,67500	94
20,68333	95
20,69167	97
20,70000	98
20,70833	100
20,71667	101
20,72500	102
20,73333	103
20,74167	104
20,75000	106
20,75833	108
20,76667	109
20,77500	111
20,78333	112
20,79167	113
20,80000	114
20,80833	115
20,81667	117
20,82500	118
20,83333	119
20,84167	121
20,85000	122
20,85833	123
20,86667	125
20,87500	126
20,88333	127
20,89167	129
20,90000	130
20,90833	131
20,91667	132
20,92500	133
20,93333	134
20,94167	135
20,95000	136
20,95833	136
20,96667	137
20,97500	138
20,98333	138
20,99167	139
21,00000	139
21,00833	140
21,01667	140
21,02500	141
21,03333	142
21,04167	142
21,05000	143
21,05833	143
21,06667	144
21,07500	144
21,08333	145
21,09167	145
21,10000	145
21,10833	145
21,11667	146
21,12500	146
21,13333	146
21,14167	147
21,15000	148
21,15833	148
21,16667	149
21,17500	149
21,18333	149
21,19167	149
21,20000	149
21,20833	149
21,21667	149
21,22500	149
21,23333	149
21,24167	149
21,25000	150
21,25833	150
21,26667	150
21,27500	150
21,28333	150
21,29167	150
21,30000	150
21,30833	150
21,31667	150
21,32500	150
21,33333	150
21,34167	150
21,35000	151
21,35833	151
21,36667	151
21,37500	151
21,38333	151
21,39167	152
21,40000	152
21,40833	152
21,41667	153
21,42500	153
21,43333	153
21,44167	152
21,45000	152
21,45833	152
21,46667	152
21,47500	152
21,48333	152
21,49167	152
21,50000	152
21,50833	152
21,51667	153
21,52500	153
21,53333	153
21,54167	153
21,55000	153
21,55833	153
21,56667	153
21,57500	153
21,58333	153
21,59167	153
21,60000	153
21,60833	153
21,61667	153
21,62500	153
21,63333	154
21,64167	154
21,65000	154
21,65833	154
21,66667	154
21,67500	153
21,68333	153
21,69167	153
21,70000	153
21,70833	153
21,71667	153
21,72500	153
21,73333	153
21,74167	154
21,75000	154
21,75833	154
21,76667	155
21,77500	155
21,78333	155
21,79167	155
21,80000	155
21,80833	155
21,81667	155
21,82500	155
21,83333	154
21,84167	154
21,85000	154
21,85833	154
21,86667	154
21,87500	155
21,88333	155
21,89167	155
21,90000	155
21,90833	155
21,91667	155
21,92500	155
21,93333	155
21,94167	155
21,95000	155
21,95833	155
21,96667	155
21,97500	155
21,98333	155
21,99167	155
22,00000	155
22,00833	155
22,01667	155
22,02500	156
22,03333	156
22,04167	156
22,05000	156
22,05833	156
22,06667	156
22,07500	156
22,08333	156
22,09167	156
22,10000	156
22,10833	156
22,11667	156
22,12500	157
22,13333	157
22,14167	157
22,15000	157
22,15833	157
22,16667	157
22,17500	157
22,18333	157
22,19167	157
22,20000	157
22,20833	157
22,21667	157
22,22500	158
22,23333	158
22,24167	158
22,25000	158
22,25833	158
22,26667	158
22,27500	158
22,28333	159
22,29167	159
22,30000	160
22,30833	159
22,31667	159
22,32500	159
22,33333	159
22,34167	159
22,35000	159
22,35833	159
22,36667	159
22,37500	159
22,38333	159
22,39167	159
22,40000	159
22,40833	159
22,41667	159
22,42500	159
22,43333	160
22,44167	160
22,45000	160
22,45833	160
22,46667	160
22,47500	161
22,48333	161
22,49167	162
22,50000	161
22,50833	161
22,51667	161
22,52500	161
22,53333	161
22,54167	161
22,55000	161
22,55833	161
22,56667	161
22,57500	161
22,58333	161
22,59167	161
22,60000	161
22,60833	161
22,61667	161
22,62500	162
22,63333	162
22,64167	162
22,65000	162
22,65833	162
22,66667	162
22,67500	162
22,68333	162
22,69167	162
22,70000	162
22,70833	163
22,71667	163
22,72500	163
22,73333	163
22,74167	163
22,75000	163
22,75833	162
22,76667	163
22,77500	163
22,78333	163
22,79167	163
22,80000	163
22,80833	163
22,81667	163
22,82500	163
22,83333	163
22,84167	163
22,85000	163
22,85833	163
22,86667	163
22,87500	163
22,88333	164
22,89167	164
22,90000	164
22,90833	164
22,91667	164
22,92500	164
22,93333	164
22,94167	164
22,95000	164
22,95833	164
22,96667	163
22,97500	164
22,98333	164
22,99167	164
23,00000	164
23,00833	164
23,01667	164
23,02500	164
23,03333	164
23,04167	164
23,05000	165
23,05833	165
23,06667	165
23,07500	166
23,08333	166
23,09167	166
23,10000	166
23,10833	166
23,11667	165
23,12500	166
23,13333	166
23,14167	166
23,15000	166
23,15833	166
23,16667	167
23,17500	167
23,18333	168
23,19167	168
23,20000	168
23,20833	169
23,21667	169
23,22500	169
23,23333	169
23,24167	169
23,25000	169
23,25833	170
23,26667	170
23,27500	171
23,28333	171
23,29167	172
23,30000	172
23,30833	173
23,31667	174
23,32500	174
23,33333	174
23,34167	175
23,35000	175
23,35833	176
23,36667	177
23,37500	178
23,38333	179
23,39167	180
23,40000	182
23,40833	183
23,41667	184
23,42500	186
23,43333	187
23,44167	189
23,45000	190
23,45833	192
23,46667	194
23,47500	196
23,48333	198
23,49167	200
23,50000	202
23,50833	205
23,51667	207
23,52500	210
23,53333	213
23,54167	216
23,55000	220
23,55833	223
23,56667	228
23,57500	233
23,58333	237
23,59167	242
23,60000	248
23,60833	253
23,61667	260
23,62500	266
23,63333	273
23,64167	280
23,65000	288
23,65833	296
23,66667	305
23,67500	314
23,68333	323
23,69167	334
23,70000	344
23,70833	356
23,71667	368
23,72500	381
23,73333	395
23,74167	410
23,75000	426
23,75833	442
23,76667	460
23,77500	478
23,78333	498
23,79167	518
23,80000	539
23,80833	562
23,81667	586
23,82500	611
23,83333	637
23,84167	665
23,85000	693
23,85833	723
23,86667	755
23,87500	788
23,88333	823
23,89167	859
23,90000	897
23,90833	937
23,91667	977
23,92500	1020
23,93333	1063
23,94167	1109
23,95000	1155
23,95833	1204
23,96667	1253
23,97500	1305
23,98333	1358
23,99167	1411
24,00000	1466
24,00833	1522
24,01667	1579
24,02500	1637
24,03333	1695
24,04167	1754
24,05000	1814
24,05833	1874
24,06667	1934
24,07500	1994
24,08333	2054
24,09167	2112
24,10000	2170
24,10833	2226
24,11667	2282
24,12500	2335
24,13333	2387
24,14167	2436
24,15000	2484
24,15833	2529
24,16667	2571
24,17500	2610
24,18333	2646
24,19167	2678
24,20000	2707
24,20833	2732
24,21667	2753
24,22500	2770
24,23333	2783
24,24167	2791
24,25000	2796
24,25833	2795
24,26667	2791
24,27500	2782
24,28333	2769
24,29167	2752
24,30000	2730
24,30833	2705
24,31667	2675
24,32500	2642
24,33333	2605
24,34167	2564
24,35000	2520
24,35833	2473
24,36667	2424
24,37500	2372
24,38333	2318
24,39167	2261
24,40000	2203
24,40833	2143
24,41667	2082
24,42500	2019
24,43333	1956
24,44167	1892
24,45000	1827
24,45833	1763
24,46667	1699
24,47500	1635
24,48333	1572
24,49167	1509
24,50000	1447
24,50833	1386
24,51667	1327
24,52500	1269
24,53333	1212
24,54167	1157
24,55000	1104
24,55833	1052
24,56667	1001
24,57500	953
24,58333	906
24,59167	861
24,60000	818
24,60833	777
24,61667	738
24,62500	701
24,63333	667
24,64167	634
24,65000	602
24,65833	572
24,66667	544
24,67500	518
24,68333	493
24,69167	470
24,70000	448
24,70833	427
24,71667	408
24,72500	390
24,73333	373
24,74167	358
24,75000	344
24,75833	331
24,76667	319
24,77500	308
24,78333	297
24,79167	288
24,80000	279
24,80833	271
24,81667	264
24,82500	257
24,83333	251
24,84167	245
24,85000	240
24,85833	235
24,86667	231
24,87500	227
24,88333	224
24,89167	221
24,90000	218
24,90833	215
24,91667	213
24,92500	211
24,93333	209
24,94167	208
24,95000	207
24,95833	205
24,96667	204
24,97500	202
24,98333	201
24,99167	200
25,00000	199
25,00833	198
25,01667	197
25,02500	196
25,03333	195
25,04167	195
25,05000	194
25,05833	194
25,06667	194
25,07500	193
25,08333	193
25,09167	193
25,10000	193
25,10833	193
25,11667	192
25,12500	192
25,13333	192
25,14167	192
25,15000	192
25,15833	192
25,16667	192
25,17500	192
25,18333	192
25,19167	192
25,20000	191
25,20833	191
25,21667	191
25,22500	191
25,23333	191
25,24167	191
25,25000	191
25,25833	191
25,26667	191
25,27500	191
25,28333	191
25,29167	191
25,30000	191
25,30833	190
25,31667	190
25,32500	189
25,33333	189
25,34167	189
25,35000	189
25,35833	189
25,36667	189
25,37500	189
25,38333	189
25,39167	188
25,40000	188
25,40833	188
25,41667	188
25,42500	188
25,43333	189
25,44167	188
25,45000	188
25,45833	187
25,46667	187
25,47500	186
25,48333	186
25,49167	186
25,50000	186
25,50833	186
25,51667	186
25,52500	186
25,53333	186
25,54167	186
25,55000	186
25,55833	186
25,56667	186
25,57500	186
25,58333	185
25,59167	185
25,60000	185
25,60833	185
25,61667	185
25,62500	185
25,63333	185
25,64167	185
25,65000	185
25,65833	185
25,66667	185
25,67500	185
25,68333	185
25,69167	186
25,70000	186
25,70833	186
25,71667	186
25,72500	186
25,73333	186
25,74167	186
25,75000	186
25,75833	186
25,76667	186
25,77500	186
25,78333	186
25,79167	186
25,80000	186
25,80833	186
25,81667	186
25,82500	186
25,83333	186
25,84167	186
25,85000	186
25,85833	187
25,86667	187
25,87500	187
25,88333	187
25,89167	187
25,90000	187
25,90833	186
25,91667	186
25,92500	186
25,93333	186
25,94167	186
25,95000	186
25,95833	186
25,96667	187
25,97500	187
25,98333	187
25,99167	187
26,00000	187
26,00833	186
26,01667	186
26,02500	187
26,03333	187
26,04167	187
26,05000	188
26,05833	188
26,06667	188
26,07500	188
26,08333	188
26,09167	188
26,10000	188
26,10833	188
26,11667	188
26,12500	187
26,13333	187
26,14167	188
26,15000	188
26,15833	188
26,16667	188
26,17500	188
26,18333	189
26,19167	189
26,20000	189
26,20833	189
26,21667	189
26,22500	189
26,23333	189
26,24167	189
26,25000	190
26,25833	190
26,26667	190
26,27500	190
26,28333	190
26,29167	189
26,30000	189
26,30833	189
26,31667	190
26,32500	190
26,33333	190
26,34167	190
26,35000	190
26,35833	190
26,36667	190
26,37500	190
26,38333	189
26,39167	189
26,40000	189
26,40833	189
26,41667	189
26,42500	189
26,43333	189
26,44167	189
26,45000	189
26,45833	189
26,46667	189
26,47500	189
26,48333	189
26,49167	189
26,50000	189
26,50833	189
26,51667	189
26,52500	189
26,53333	190
26,54167	189
26,55000	189
26,55833	189
26,56667	190
26,57500	190
26,58333	190
26,59167	190
26,60000	191
26,60833	191
26,61667	191
26,62500	191
26,63333	191
26,64167	191
26,65000	190
26,65833	190
26,66667	191
26,67500	191
26,68333	191
26,69167	191
26,70000	191
26,70833	191
26,71667	191
26,72500	191
26,73333	191
26,74167	190
26,75000	190
26,75833	190
26,76667	190
26,77500	190
26,78333	190
26,79167	191
26,80000	191
26,80833	191
26,81667	191
26,82500	191
26,83333	191
26,84167	192
26,85000	192
26,85833	192
26,86667	192
26,87500	192
26,88333	192
26,89167	192
26,90000	192
26,90833	192
26,91667	192
26,92500	192
26,93333	192
26,94167	192
26,95000	192
26,95833	192
26,96667	192
26,97500	192
26,98333	192
26,99167	192
27,00000	192
27,00833	192
27,01667	192
27,02500	192
27,03333	192
27,04167	192
27,05000	192
27,05833	193
27,06667	192
27,07500	192
27,08333	192
27,09167	193
27,10000	193
27,10833	193
27,11667	193
27,12500	193
27,13333	193
27,14167	193
27,15000	193
27,15833	193
27,16667	193
27,17500	193
27,18333	193
27,19167	193
27,20000	194
27,20833	194
27,21667	194
27,22500	195
27,23333	194
27,24167	194
27,25000	194
27,25833	194
27,26667	194
27,27500	194
27,28333	195
27,29167	195
27,30000	195
27,30833	195
27,31667	195
27,32500	195
27,33333	195
27,34167	195
27,35000	195
27,35833	196
27,36667	196
27,37500	196
27,38333	196
27,39167	196
27,40000	196
27,40833	196
27,41667	195
27,42500	195
27,43333	196
27,44167	196
27,45000	196
27,45833	196
27,46667	196
27,47500	196
27,48333	196
27,49167	196
27,50000	196
27,50833	196
27,51667	196
27,52500	196
27,53333	196
27,54167	196
27,55000	196
27,55833	197
27,56667	197
27,57500	197
27,58333	197
27,59167	197
27,60000	197
27,60833	197
27,61667	197
27,62500	196
27,63333	197
27,64167	197
27,65000	197
27,65833	197
27,66667	197
27,67500	197
27,68333	197
27,69167	197
27,70000	197
27,70833	198
27,71667	198
27,72500	197
27,73333	197
27,74167	197
27,75000	197
27,75833	197
27,76667	197
27,77500	197
27,78333	197
27,79167	198
27,80000	198
27,80833	197
27,81667	197
27,82500	198
27,83333	198
27,84167	198
27,85000	198
27,85833	199
27,86667	199
27,87500	200
27,88333	200
27,89167	200
27,90000	200
27,90833	200
27,91667	200
27,92500	199
27,93333	199
27,94167	199
27,95000	199
27,95833	199
27,96667	199
27,97500	199
27,98333	199
27,99167	199
28,00000	199
28,00833	199
28,01667	199
28,02500	199
28,03333	199
28,04167	199
28,05000	199
28,05833	200
28,06667	200
28,07500	200
28,08333	200
28,09167	200
28,10000	200
28,10833	200
28,11667	200
28,12500	200
28,13333	200
28,14167	200
28,15000	200
28,15833	200
28,16667	200
28,17500	200
28,18333	200
28,19167	200
28,20000	200
28,20833	200
28,21667	200
28,22500	200
28,23333	201
28,24167	200
28,25000	200
28,25833	200
28,26667	200
28,27500	201
28,28333	201
28,29167	202
28,30000	202
28,30833	203
28,31667	203
28,32500	203
28,33333	202
28,34167	202
28,35000	202
28,35833	202
28,36667	202
28,37500	202
28,38333	202
28,39167	202
28,40000	202
28,40833	202
28,41667	202
28,42500	202
28,43333	202
28,44167	202
28,45000	202
28,45833	202
28,46667	202
28,47500	202
28,48333	202
28,49167	202
28,50000	202
28,50833	203
28,51667	203
28,52500	203
28,53333	203
28,54167	203
28,55000	203
28,55833	203
28,56667	203
28,57500	203
28,58333	203
28,59167	202
28,60000	202
28,60833	203
28,61667	203
28,62500	203
28,63333	203
28,64167	203
28,65000	203
28,65833	203
28,66667	203
28,67500	203
28,68333	203
28,69167	203
28,70000	203
28,70833	204
28,71667	204
28,72500	204
28,73333	204
28,74167	205
28,75000	205
28,75833	205
28,76667	204
28,77500	204
28,78333	204
28,79167	204
28,80000	204
28,80833	204
28,81667	205
28,82500	205
28,83333	205
28,84167	205
28,85000	205
28,85833	205
28,86667	205
28,87500	205
28,88333	205
28,89167	205
28,90000	205
28,90833	205
28,91667	205
28,92500	205
28,93333	205
28,94167	205
28,95000	206
28,95833	206
28,96667	206
28,97500	206
28,98333	206
28,99167	206
29,00000	206
29,00833	206
29,01667	206
29,02500	206
29,03333	206
29,04167	206
29,05000	206
29,05833	206
29,06667	206
29,07500	206
29,08333	206
29,09167	206
29,10000	207
29,10833	207
29,11667	207
29,12500	208
29,13333	208
29,14167	208
29,15000	208
29,15833	208
29,16667	208
29,17500	208
29,18333	208
29,19167	208
29,20000	208
29,20833	208
29,21667	208
29,22500	207
29,23333	207
29,24167	207
29,25000	208
29,25833	208
29,26667	208
29,27500	208
29,28333	208
29,29167	208
29,30000	208
29,30833	208
29,31667	208
29,32500	208
29,33333	208
29,34167	209
29,35000	209
29,35833	209
29,36667	209
29,37500	209
29,38333	210
29,39167	210
29,40000	210
29,40833	210
29,41667	210
29,42500	210
29,43333	210
29,44167	210
29,45000	210
29,45833	210
29,46667	210
29,47500	210
29,48333	210
29,49167	210
29,50000	210
29,50833	210
29,51667	211
29,52500	211
29,53333	210
29,54167	210
29,55000	210
29,55833	210
29,56667	210
29,57500	210
29,58333	210
29,59167	210
29,60000	211
29,60833	211
29,61667	211
29,62500	211
29,63333	211
29,64167	211
29,65000	211
29,65833	211
29,66667	211
29,67500	211
29,68333	211
29,69167	211
29,70000	211
29,70833	211
29,71667	211
29,72500	212
29,73333	212
29,74167	211
29,75000	211
29,75833	210
29,76667	210
29,77500	211
29,78333	211
29,79167	211
29,80000	212
29,80833	212
29,81667	212
29,82500	212
29,83333	212
29,84167	212
29,85000	212
29,85833	212
29,86667	212
29,87500	212
29,88333	212
29,89167	212
29,90000	212
29,90833	212
29,91667	212
29,92500	212
29,93333	212
29,94167	213
29,95000	212
29,95833	213
29,96667	213
29,97500	212
29,98333	212
29,99167	212
30,00000	212

