R.Time (min)	Intensity
0,00000	-1
0,00833	-1
0,01667	-0
0,02500	-0
0,03333	-0
0,04167	-1
0,05000	-1
0,05833	-1
0,06667	-2
0,07500	-2
0,08333	-2
0,09167	-2
0,10000	-1
0,10833	-1
0,11667	-1
0,12500	-1
0,13333	-1
0,14167	-0
0,15000	-0
0,15833	-0
0,16667	-0
0,17500	0
0,18333	1
0,19167	1
0,20000	1
0,20833	2
0,21667	1
0,22500	1
0,23333	1
0,24167	1
0,25000	1
0,25833	1
0,26667	1
0,27500	1
0,28333	1
0,29167	0
0,30000	0
0,30833	0
0,31667	1
0,32500	1
0,33333	1
0,34167	1
0,35000	2
0,35833	2
0,36667	2
0,37500	2
0,38333	2
0,39167	2
0,40000	1
0,40833	1
0,41667	0
0,42500	-0
0,43333	-1
0,44167	-2
0,45000	-2
0,45833	-3
0,46667	-3
0,47500	-3
0,48333	-4
0,49167	-4
0,50000	-4
0,50833	-4
0,51667	-4
0,52500	-4
0,53333	-3
0,54167	-3
0,55000	-3
0,55833	-3
0,56667	-3
0,57500	-2
0,58333	-2
0,59167	-2
0,60000	-2
0,60833	-2
0,61667	-2
0,62500	-2
0,63333	-2
0,64167	-1
0,65000	-1
0,65833	-1
0,66667	-1
0,67500	-1
0,68333	-1
0,69167	-1
0,70000	-0
0,70833	-0
0,71667	0
0,72500	0
0,73333	1
0,74167	1
0,75000	1
0,75833	1
0,76667	1
0,77500	1
0,78333	1
0,79167	2
0,80000	2
0,80833	1
0,81667	1
0,82500	1
0,83333	-0
0,84167	-1
0,85000	-1
0,85833	-1
0,86667	-1
0,87500	-1
0,88333	-2
0,89167	-2
0,90000	-2
0,90833	-2
0,91667	-2
0,92500	-2
0,93333	-2
0,94167	-2
0,95000	-2
0,95833	-2
0,96667	-2
0,97500	-2
0,98333	-2
0,99167	-1
1,00000	-1
1,00833	-1
1,01667	-1
1,02500	-1
1,03333	-1
1,04167	-1
1,05000	-1
1,05833	-1
1,06667	-1
1,07500	-1
1,08333	-1
1,09167	-1
1,10000	-1
1,10833	-1
1,11667	-1
1,12500	-0
1,13333	-0
1,14167	-0
1,15000	-0
1,15833	-0
1,16667	0
1,17500	0
1,18333	-0
1,19167	-0
1,20000	-0
1,20833	-0
1,21667	-0
1,22500	-0
1,23333	-0
1,24167	-0
1,25000	0
1,25833	0
1,26667	0
1,27500	0
1,28333	0
1,29167	0
1,30000	1
1,30833	1
1,31667	1
1,32500	1
1,33333	1
1,34167	0
1,35000	0
1,35833	-0
1,36667	-1
1,37500	-1
1,38333	-1
1,39167	-1
1,40000	-0
1,40833	-0
1,41667	-0
1,42500	-0
1,43333	-0
1,44167	0
1,45000	0
1,45833	0
1,46667	0
1,47500	-0
1,48333	-0
1,49167	-0
1,50000	-1
1,50833	-1
1,51667	-1
1,52500	-1
1,53333	-0
1,54167	-0
1,55000	0
1,55833	-0
1,56667	-0
1,57500	-1
1,58333	-1
1,59167	-1
1,60000	-1
1,60833	-1
1,61667	-1
1,62500	-1
1,63333	-1
1,64167	-0
1,65000	-0
1,65833	-0
1,66667	0
1,67500	0
1,68333	0
1,69167	0
1,70000	1
1,70833	0
1,71667	0
1,72500	0
1,73333	0
1,74167	0
1,75000	1
1,75833	1
1,76667	1
1,77500	1
1,78333	1
1,79167	1
1,80000	0
1,80833	0
1,81667	1
1,82500	1
1,83333	1
1,84167	1
1,85000	1
1,85833	2
1,86667	2
1,87500	2
1,88333	2
1,89167	2
1,90000	2
1,90833	2
1,91667	2
1,92500	2
1,93333	2
1,94167	2
1,95000	2
1,95833	2
1,96667	2
1,97500	2
1,98333	2
1,99167	2
2,00000	2
2,00833	3
2,01667	3
2,02500	3
2,03333	4
2,04167	4
2,05000	4
2,05833	4
2,06667	4
2,07500	4
2,08333	4
2,09167	4
2,10000	4
2,10833	3
2,11667	3
2,12500	3
2,13333	3
2,14167	4
2,15000	4
2,15833	4
2,16667	4
2,17500	4
2,18333	4
2,19167	4
2,20000	4
2,20833	4
2,21667	4
2,22500	4
2,23333	4
2,24167	4
2,25000	4
2,25833	4
2,26667	4
2,27500	3
2,28333	4
2,29167	4
2,30000	4
2,30833	4
2,31667	4
2,32500	4
2,33333	5
2,34167	5
2,35000	5
2,35833	5
2,36667	4
2,37500	4
2,38333	4
2,39167	4
2,40000	4
2,40833	4
2,41667	5
2,42500	5
2,43333	5
2,44167	5
2,45000	5
2,45833	5
2,46667	5
2,47500	5
2,48333	4
2,49167	4
2,50000	4
2,50833	4
2,51667	4
2,52500	3
2,53333	3
2,54167	3
2,55000	3
2,55833	3
2,56667	3
2,57500	3
2,58333	3
2,59167	3
2,60000	2
2,60833	2
2,61667	2
2,62500	3
2,63333	3
2,64167	4
2,65000	4
2,65833	4
2,66667	4
2,67500	4
2,68333	3
2,69167	3
2,70000	2
2,70833	2
2,71667	2
2,72500	2
2,73333	2
2,74167	2
2,75000	2
2,75833	2
2,76667	2
2,77500	2
2,78333	2
2,79167	2
2,80000	3
2,80833	3
2,81667	3
2,82500	3
2,83333	3
2,84167	2
2,85000	2
2,85833	2
2,86667	2
2,87500	2
2,88333	1
2,89167	1
2,90000	1
2,90833	1
2,91667	1
2,92500	1
2,93333	1
2,94167	1
2,95000	2
2,95833	2
2,96667	2
2,97500	2
2,98333	1
2,99167	1
3,00000	1
3,00833	1
3,01667	1
3,02500	1
3,03333	0
3,04167	0
3,05000	0
3,05833	1
3,06667	1
3,07500	1
3,08333	1
3,09167	1
3,10000	1
3,10833	1
3,11667	1
3,12500	1
3,13333	1
3,14167	1
3,15000	1
3,15833	1
3,16667	1
3,17500	1
3,18333	0
3,19167	0
3,20000	0
3,20833	0
3,21667	0
3,22500	1
3,23333	1
3,24167	1
3,25000	2
3,25833	2
3,26667	2
3,27500	2
3,28333	2
3,29167	2
3,30000	2
3,30833	2
3,31667	2
3,32500	2
3,33333	2
3,34167	2
3,35000	2
3,35833	2
3,36667	2
3,37500	2
3,38333	2
3,39167	2
3,40000	2
3,40833	2
3,41667	2
3,42500	2
3,43333	2
3,44167	2
3,45000	2
3,45833	3
3,46667	3
3,47500	3
3,48333	3
3,49167	3
3,50000	3
3,50833	3
3,51667	3
3,52500	3
3,53333	3
3,54167	3
3,55000	3
3,55833	2
3,56667	2
3,57500	2
3,58333	2
3,59167	2
3,60000	2
3,60833	2
3,61667	2
3,62500	2
3,63333	2
3,64167	2
3,65000	2
3,65833	2
3,66667	2
3,67500	2
3,68333	2
3,69167	2
3,70000	2
3,70833	2
3,71667	3
3,72500	3
3,73333	3
3,74167	3
3,75000	3
3,75833	4
3,76667	4
3,77500	4
3,78333	3
3,79167	3
3,80000	3
3,80833	3
3,81667	3
3,82500	3
3,83333	3
3,84167	3
3,85000	3
3,85833	3
3,86667	3
3,87500	3
3,88333	3
3,89167	3
3,90000	3
3,90833	3
3,91667	3
3,92500	3
3,93333	3
3,94167	3
3,95000	3
3,95833	3
3,96667	2
3,97500	2
3,98333	2
3,99167	3
4,00000	3
4,00833	3
4,01667	3
4,02500	3
4,03333	3
4,04167	3
4,05000	4
4,05833	3
4,06667	3
4,07500	2
4,08333	2
4,09167	2
4,10000	2
4,10833	1
4,11667	2
4,12500	2
4,13333	1
4,14167	1
4,15000	1
4,15833	1
4,16667	1
4,17500	1
4,18333	2
4,19167	2
4,20000	2
4,20833	2
4,21667	2
4,22500	3
4,23333	3
4,24167	3
4,25000	4
4,25833	4
4,26667	3
4,27500	3
4,28333	3
4,29167	3
4,30000	3
4,30833	3
4,31667	3
4,32500	3
4,33333	3
4,34167	3
4,35000	3
4,35833	3
4,36667	3
4,37500	3
4,38333	4
4,39167	3
4,40000	3
4,40833	3
4,41667	3
4,42500	3
4,43333	3
4,44167	3
4,45000	3
4,45833	3
4,46667	3
4,47500	3
4,48333	3
4,49167	3
4,50000	3
4,50833	3
4,51667	3
4,52500	3
4,53333	3
4,54167	3
4,55000	3
4,55833	3
4,56667	3
4,57500	3
4,58333	3
4,59167	2
4,60000	2
4,60833	2
4,61667	2
4,62500	2
4,63333	2
4,64167	2
4,65000	2
4,65833	2
4,66667	2
4,67500	2
4,68333	2
4,69167	2
4,70000	2
4,70833	2
4,71667	3
4,72500	3
4,73333	3
4,74167	3
4,75000	3
4,75833	3
4,76667	3
4,77500	3
4,78333	3
4,79167	3
4,80000	3
4,80833	3
4,81667	3
4,82500	3
4,83333	3
4,84167	4
4,85000	4
4,85833	4
4,86667	4
4,87500	4
4,88333	4
4,89167	4
4,90000	4
4,90833	4
4,91667	4
4,92500	4
4,93333	4
4,94167	4
4,95000	4
4,95833	4
4,96667	4
4,97500	4
4,98333	4
4,99167	4
5,00000	4
5,00833	4
5,01667	3
5,02500	3
5,03333	3
5,04167	3
5,05000	3
5,05833	3
5,06667	4
5,07500	4
5,08333	4
5,09167	5
5,10000	5
5,10833	5
5,11667	4
5,12500	4
5,13333	4
5,14167	4
5,15000	4
5,15833	4
5,16667	3
5,17500	3
5,18333	3
5,19167	3
5,20000	4
5,20833	4
5,21667	4
5,22500	5
5,23333	5
5,24167	5
5,25000	4
5,25833	4
5,26667	4
5,27500	3
5,28333	3
5,29167	3
5,30000	3
5,30833	4
5,31667	4
5,32500	4
5,33333	4
5,34167	4
5,35000	3
5,35833	3
5,36667	3
5,37500	3
5,38333	4
5,39167	4
5,40000	4
5,40833	3
5,41667	3
5,42500	3
5,43333	3
5,44167	3
5,45000	3
5,45833	4
5,46667	4
5,47500	4
5,48333	4
5,49167	5
5,50000	5
5,50833	5
5,51667	4
5,52500	4
5,53333	4
5,54167	5
5,55000	5
5,55833	5
5,56667	5
5,57500	5
5,58333	5
5,59167	5
5,60000	5
5,60833	5
5,61667	5
5,62500	6
5,63333	6
5,64167	6
5,65000	6
5,65833	6
5,66667	6
5,67500	6
5,68333	6
5,69167	6
5,70000	5
5,70833	5
5,71667	6
5,72500	6
5,73333	6
5,74167	6
5,75000	6
5,75833	6
5,76667	6
5,77500	6
5,78333	5
5,79167	5
5,80000	5
5,80833	5
5,81667	5
5,82500	6
5,83333	6
5,84167	6
5,85000	7
5,85833	7
5,86667	7
5,87500	7
5,88333	8
5,89167	8
5,90000	9
5,90833	9
5,91667	10
5,92500	11
5,93333	11
5,94167	12
5,95000	13
5,95833	13
5,96667	14
5,97500	15
5,98333	16
5,99167	17
6,00000	19
6,00833	20
6,01667	21
6,02500	23
6,03333	25
6,04167	28
6,05000	32
6,05833	35
6,06667	40
6,07500	46
6,08333	53
6,09167	63
6,10000	77
6,10833	97
6,11667	125
6,12500	166
6,13333	226
6,14167	314
6,15000	441
6,15833	623
6,16667	880
6,17500	1238
6,18333	1726
6,19167	2381
6,20000	3245
6,20833	4363
6,21667	5784
6,22500	7559
6,23333	9741
6,24167	12380
6,25000	15526
6,25833	19221
6,26667	23507
6,27500	28417
6,28333	33980
6,29167	40217
6,30000	47145
6,30833	54776
6,31667	63115
6,32500	72162
6,33333	81914
6,34167	92367
6,35000	103508
6,35833	115324
6,36667	127802
6,37500	140927
6,38333	154682
6,39167	169044
6,40000	183995
6,40833	199515
6,41667	215581
6,42500	232171
6,43333	249263
6,44167	266838
6,45000	284873
6,45833	303340
6,46667	322218
6,47500	341486
6,48333	361119
6,49167	381092
6,50000	401383
6,50833	421971
6,51667	442829
6,52500	463931
6,53333	485254
6,54167	506776
6,55000	528467
6,55833	550304
6,56667	572259
6,57500	594307
6,58333	616424
6,59167	638602
6,60000	660836
6,60833	683120
6,61667	705440
6,62500	727779
6,63333	750120
6,64167	772443
6,65000	794725
6,65833	816941
6,66667	839067
6,67500	861078
6,68333	882946
6,69167	904642
6,70000	926135
6,70833	947395
6,71667	968387
6,72500	989074
6,73333	1009420
6,74167	1029343
6,75000	1048475
6,75833	1066505
6,76667	1083397
6,77500	1099240
6,78333	1114153
6,79167	1128243
6,80000	1141596
6,80833	1154268
6,81667	1166288
6,82500	1177656
6,83333	1188332
6,84167	1198196
6,85000	1206978
6,85833	1214156
6,86667	1218835
6,87500	1219648
6,88333	1214773
6,89167	1202117
6,90000	1178819
6,90833	1141633
6,91667	1089520
6,92500	1023707
6,93333	947000
6,94167	863012
6,95000	775542
6,95833	688060
6,96667	603446
6,97500	523855
6,98333	450719
6,99167	384806
7,00000	326357
7,00833	275222
7,01667	231004
7,02500	193138
7,03333	160978
7,04167	133860
7,05000	111142
7,05833	92212
7,06667	76512
7,07500	63542
7,08333	52866
7,09167	44100
7,10000	36915
7,10833	31033
7,11667	26220
7,12500	22280
7,13333	19053
7,14167	16403
7,15000	14222
7,15833	12423
7,16667	10933
7,17500	9693
7,18333	8659
7,19167	7790
7,20000	7058
7,20833	6437
7,21667	5908
7,22500	5453
7,23333	5059
7,24167	4715
7,25000	4412
7,25833	4142
7,26667	3899
7,27500	3679
7,28333	3478
7,29167	3292
7,30000	3119
7,30833	2958
7,31667	2808
7,32500	2667
7,33333	2535
7,34167	2412
7,35000	2296
7,35833	2188
7,36667	2087
7,37500	1993
7,38333	1906
7,39167	1824
7,40000	1749
7,40833	1678
7,41667	1613
7,42500	1553
7,43333	1496
7,44167	1443
7,45000	1393
7,45833	1348
7,46667	1305
7,47500	1265
7,48333	1227
7,49167	1191
7,50000	1158
7,50833	1126
7,51667	1095
7,52500	1066
7,53333	1039
7,54167	1012
7,55000	988
7,55833	964
7,56667	941
7,57500	919
7,58333	898
7,59167	877
7,60000	857
7,60833	839
7,61667	822
7,62500	805
7,63333	788
7,64167	772
7,65000	757
7,65833	742
7,66667	727
7,67500	713
7,68333	699
7,69167	686
7,70000	673
7,70833	661
7,71667	649
7,72500	637
7,73333	626
7,74167	614
7,75000	603
7,75833	592
7,76667	583
7,77500	573
7,78333	563
7,79167	554
7,80000	545
7,80833	536
7,81667	527
7,82500	519
7,83333	511
7,84167	502
7,85000	494
7,85833	486
7,86667	478
7,87500	471
7,88333	464
7,89167	457
7,90000	450
7,90833	443
7,91667	436
7,92500	430
7,93333	424
7,94167	418
7,95000	412
7,95833	406
7,96667	400
7,97500	394
7,98333	388
7,99167	383
8,00000	377
8,00833	372
8,01667	367
8,02500	361
8,03333	356
8,04167	351
8,05000	346
8,05833	341
8,06667	338
8,07500	333
8,08333	329
8,09167	325
8,10000	322
8,10833	318
8,11667	314
8,12500	311
8,13333	307
8,14167	303
8,15000	299
8,15833	295
8,16667	292
8,17500	289
8,18333	285
8,19167	282
8,20000	278
8,20833	275
8,21667	272
8,22500	268
8,23333	265
8,24167	263
8,25000	260
8,25833	256
8,26667	253
8,27500	249
8,28333	246
8,29167	243
8,30000	240
8,30833	238
8,31667	235
8,32500	233
8,33333	230
8,34167	228
8,35000	225
8,35833	222
8,36667	220
8,37500	217
8,38333	215
8,39167	213
8,40000	210
8,40833	208
8,41667	206
8,42500	204
8,43333	202
8,44167	200
8,45000	198
8,45833	196
8,46667	194
8,47500	192
8,48333	190
8,49167	187
8,50000	185
8,50833	182
8,51667	181
8,52500	179
8,53333	177
8,54167	175
8,55000	173
8,55833	172
8,56667	170
8,57500	169
8,58333	167
8,59167	165
8,60000	164
8,60833	162
8,61667	161
8,62500	159
8,63333	158
8,64167	157
8,65000	155
8,65833	153
8,66667	152
8,67500	150
8,68333	149
8,69167	147
8,70000	146
8,70833	145
8,71667	143
8,72500	142
8,73333	141
8,74167	139
8,75000	138
8,75833	137
8,76667	136
8,77500	135
8,78333	134
8,79167	133
8,80000	132
8,80833	132
8,81667	131
8,82500	131
8,83333	131
8,84167	131
8,85000	131
8,85833	131
8,86667	132
8,87500	133
8,88333	134
8,89167	136
8,90000	139
8,90833	143
8,91667	148
8,92500	154
8,93333	162
8,94167	171
8,95000	183
8,95833	196
8,96667	212
8,97500	231
8,98333	253
8,99167	277
9,00000	305
9,00833	335
9,01667	368
9,02500	403
9,03333	440
9,04167	479
9,05000	518
9,05833	556
9,06667	593
9,07500	628
9,08333	659
9,09167	686
9,10000	709
9,10833	726
9,11667	737
9,12500	741
9,13333	739
9,14167	732
9,15000	719
9,15833	700
9,16667	676
9,17500	649
9,18333	618
9,19167	585
9,20000	551
9,20833	515
9,21667	479
9,22500	444
9,23333	409
9,24167	377
9,25000	345
9,25833	316
9,26667	289
9,27500	265
9,28333	242
9,29167	222
9,30000	204
9,30833	187
9,31667	173
9,32500	161
9,33333	149
9,34167	139
9,35000	131
9,35833	123
9,36667	116
9,37500	110
9,38333	105
9,39167	101
9,40000	97
9,40833	94
9,41667	91
9,42500	88
9,43333	86
9,44167	85
9,45000	83
9,45833	81
9,46667	80
9,47500	79
9,48333	79
9,49167	78
9,50000	77
9,50833	76
9,51667	76
9,52500	75
9,53333	75
9,54167	74
9,55000	73
9,55833	73
9,56667	72
9,57500	72
9,58333	72
9,59167	71
9,60000	71
9,60833	71
9,61667	71
9,62500	70
9,63333	70
9,64167	69
9,65000	69
9,65833	69
9,66667	68
9,67500	68
9,68333	68
9,69167	67
9,70000	67
9,70833	67
9,71667	66
9,72500	66
9,73333	65
9,74167	65
9,75000	64
9,75833	64
9,76667	64
9,77500	64
9,78333	64
9,79167	64
9,80000	64
9,80833	63
9,81667	63
9,82500	62
9,83333	62
9,84167	61
9,85000	61
9,85833	61
9,86667	60
9,87500	60
9,88333	60
9,89167	59
9,90000	59
9,90833	59
9,91667	58
9,92500	58
9,93333	58
9,94167	58
9,95000	58
9,95833	58
9,96667	58
9,97500	57
9,98333	57
9,99167	57
10,00000	56
10,00833	56
10,01667	56
10,02500	55
10,03333	55
10,04167	54
10,05000	54
10,05833	54
10,06667	53
10,07500	53
10,08333	53
10,09167	52
10,10000	52
10,10833	52
10,11667	52
10,12500	52
10,13333	52
10,14167	52
10,15000	52
10,15833	51
10,16667	51
10,17500	51
10,18333	51
10,19167	50
10,20000	50
10,20833	50
10,21667	50
10,22500	49
10,23333	49
10,24167	49
10,25000	49
10,25833	48
10,26667	48
10,27500	48
10,28333	48
10,29167	47
10,30000	48
10,30833	47
10,31667	47
10,32500	47
10,33333	47
10,34167	47
10,35000	47
10,35833	46
10,36667	46
10,37500	46
10,38333	45
10,39167	45
10,40000	45
10,40833	45
10,41667	45
10,42500	45
10,43333	44
10,44167	44
10,45000	44
10,45833	43
10,46667	43
10,47500	43
10,48333	43
10,49167	44
10,50000	44
10,50833	44
10,51667	44
10,52500	44
10,53333	44
10,54167	44
10,55000	44
10,55833	44
10,56667	44
10,57500	44
10,58333	45
10,59167	45
10,60000	45
10,60833	46
10,61667	46
10,62500	46
10,63333	46
10,64167	46
10,65000	47
10,65833	47
10,66667	47
10,67500	46
10,68333	46
10,69167	46
10,70000	46
10,70833	46
10,71667	45
10,72500	44
10,73333	44
10,74167	43
10,75000	43
10,75833	42
10,76667	42
10,77500	42
10,78333	41
10,79167	40
10,80000	40
10,80833	40
10,81667	40
10,82500	40
10,83333	40
10,84167	39
10,85000	39
10,85833	39
10,86667	39
10,87500	38
10,88333	38
10,89167	38
10,90000	37
10,90833	37
10,91667	37
10,92500	37
10,93333	37
10,94167	37
10,95000	37
10,95833	37
10,96667	38
10,97500	38
10,98333	38
10,99167	37
11,00000	37
11,00833	37
11,01667	37
11,02500	37
11,03333	37
11,04167	37
11,05000	38
11,05833	38
11,06667	37
11,07500	37
11,08333	37
11,09167	37
11,10000	38
11,10833	38
11,11667	38
11,12500	38
11,13333	38
11,14167	39
11,15000	39
11,15833	39
11,16667	39
11,17500	40
11,18333	40
11,19167	40
11,20000	40
11,20833	41
11,21667	42
11,22500	42
11,23333	43
11,24167	44
11,25000	45
11,25833	46
11,26667	47
11,27500	48
11,28333	50
11,29167	51
11,30000	53
11,30833	55
11,31667	56
11,32500	58
11,33333	59
11,34167	60
11,35000	62
11,35833	63
11,36667	65
11,37500	66
11,38333	68
11,39167	69
11,40000	70
11,40833	71
11,41667	72
11,42500	73
11,43333	74
11,44167	74
11,45000	74
11,45833	74
11,46667	74
11,47500	73
11,48333	73
11,49167	73
11,50000	72
11,50833	72
11,51667	72
11,52500	71
11,53333	71
11,54167	70
11,55000	69
11,55833	69
11,56667	68
11,57500	67
11,58333	66
11,59167	65
11,60000	64
11,60833	63
11,61667	62
11,62500	61
11,63333	60
11,64167	58
11,65000	57
11,65833	56
11,66667	55
11,67500	53
11,68333	51
11,69167	50
11,70000	49
11,70833	47
11,71667	46
11,72500	45
11,73333	44
11,74167	43
11,75000	43
11,75833	42
11,76667	41
11,77500	40
11,78333	39
11,79167	38
11,80000	38
11,80833	37
11,81667	36
11,82500	36
11,83333	36
11,84167	35
11,85000	35
11,85833	35
11,86667	35
11,87500	35
11,88333	35
11,89167	35
11,90000	35
11,90833	34
11,91667	34
11,92500	34
11,93333	34
11,94167	34
11,95000	34
11,95833	34
11,96667	34
11,97500	34
11,98333	34
11,99167	34
12,00000	34
12,00833	34
12,01667	34
12,02500	34
12,03333	34
12,04167	34
12,05000	34
12,05833	34
12,06667	34
12,07500	34
12,08333	34
12,09167	35
12,10000	35
12,10833	35
12,11667	35
12,12500	36
12,13333	36
12,14167	36
12,15000	36
12,15833	36
12,16667	36
12,17500	37
12,18333	37
12,19167	38
12,20000	38
12,20833	39
12,21667	39
12,22500	40
12,23333	40
12,24167	41
12,25000	42
12,25833	42
12,26667	43
12,27500	45
12,28333	46
12,29167	47
12,30000	47
12,30833	48
12,31667	49
12,32500	49
12,33333	50
12,34167	51
12,35000	52
12,35833	53
12,36667	54
12,37500	54
12,38333	55
12,39167	55
12,40000	55
12,40833	56
12,41667	56
12,42500	56
12,43333	56
12,44167	55
12,45000	55
12,45833	54
12,46667	53
12,47500	52
12,48333	52
12,49167	51
12,50000	50
12,50833	48
12,51667	47
12,52500	47
12,53333	46
12,54167	45
12,55000	44
12,55833	43
12,56667	43
12,57500	42
12,58333	42
12,59167	41
12,60000	41
12,60833	41
12,61667	41
12,62500	40
12,63333	39
12,64167	38
12,65000	38
12,65833	37
12,66667	37
12,67500	37
12,68333	37
12,69167	36
12,70000	36
12,70833	37
12,71667	37
12,72500	37
12,73333	37
12,74167	37
12,75000	37
12,75833	36
12,76667	36
12,77500	36
12,78333	35
12,79167	35
12,80000	35
12,80833	35
12,81667	35
12,82500	35
12,83333	35
12,84167	35
12,85000	35
12,85833	35
12,86667	35
12,87500	34
12,88333	34
12,89167	34
12,90000	34
12,90833	34
12,91667	34
12,92500	34
12,93333	34
12,94167	33
12,95000	33
12,95833	33
12,96667	32
12,97500	32
12,98333	31
12,99167	31
13,00000	31
13,00833	31
13,01667	31
13,02500	31
13,03333	31
13,04167	30
13,05000	30
13,05833	30
13,06667	30
13,07500	30
13,08333	29
13,09167	29
13,10000	30
13,10833	29
13,11667	29
13,12500	29
13,13333	29
13,14167	28
13,15000	29
13,15833	29
13,16667	29
13,17500	29
13,18333	29
13,19167	29
13,20000	29
13,20833	29
13,21667	29
13,22500	29
13,23333	28
13,24167	28
13,25000	28
13,25833	28
13,26667	28
13,27500	28
13,28333	28
13,29167	28
13,30000	28
13,30833	28
13,31667	28
13,32500	28
13,33333	28
13,34167	28
13,35000	28
13,35833	28
13,36667	28
13,37500	28
13,38333	28
13,39167	28
13,40000	28
13,40833	28
13,41667	29
13,42500	29
13,43333	29
13,44167	29
13,45000	28
13,45833	28
13,46667	28
13,47500	28
13,48333	28
13,49167	28
13,50000	28
13,50833	28
13,51667	28
13,52500	28
13,53333	28
13,54167	28
13,55000	29
13,55833	28
13,56667	29
13,57500	29
13,58333	29
13,59167	30
13,60000	30
13,60833	30
13,61667	29
13,62500	29
13,63333	29
13,64167	29
13,65000	30
13,65833	30
13,66667	30
13,67500	30
13,68333	30
13,69167	30
13,70000	31
13,70833	31
13,71667	32
13,72500	32
13,73333	32
13,74167	32
13,75000	32
13,75833	32
13,76667	31
13,77500	31
13,78333	32
13,79167	32
13,80000	32
13,80833	32
13,81667	32
13,82500	32
13,83333	32
13,84167	32
13,85000	33
13,85833	32
13,86667	32
13,87500	32
13,88333	32
13,89167	32
13,90000	32
13,90833	32
13,91667	32
13,92500	32
13,93333	33
13,94167	33
13,95000	33
13,95833	33
13,96667	33
13,97500	33
13,98333	34
13,99167	34
14,00000	34
14,00833	34
14,01667	35
14,02500	35
14,03333	35
14,04167	36
14,05000	37
14,05833	38
14,06667	38
14,07500	39
14,08333	40
14,09167	41
14,10000	42
14,10833	43
14,11667	44
14,12500	46
14,13333	47
14,14167	49
14,15000	51
14,15833	53
14,16667	55
14,17500	57
14,18333	60
14,19167	62
14,20000	65
14,20833	67
14,21667	69
14,22500	72
14,23333	74
14,24167	77
14,25000	79
14,25833	81
14,26667	84
14,27500	86
14,28333	88
14,29167	90
14,30000	92
14,30833	93
14,31667	94
14,32500	96
14,33333	96
14,34167	96
14,35000	96
14,35833	96
14,36667	96
14,37500	95
14,38333	94
14,39167	93
14,40000	91
14,40833	89
14,41667	87
14,42500	85
14,43333	82
14,44167	80
14,45000	77
14,45833	75
14,46667	72
14,47500	69
14,48333	66
14,49167	64
14,50000	61
14,50833	59
14,51667	57
14,52500	55
14,53333	52
14,54167	50
14,55000	48
14,55833	46
14,56667	44
14,57500	43
14,58333	41
14,59167	40
14,60000	39
14,60833	38
14,61667	37
14,62500	37
14,63333	36
14,64167	36
14,65000	35
14,65833	35
14,66667	35
14,67500	34
14,68333	34
14,69167	34
14,70000	34
14,70833	34
14,71667	34
14,72500	35
14,73333	35
14,74167	35
14,75000	36
14,75833	36
14,76667	36
14,77500	37
14,78333	37
14,79167	38
14,80000	39
14,80833	39
14,81667	40
14,82500	40
14,83333	41
14,84167	41
14,85000	42
14,85833	44
14,86667	45
14,87500	46
14,88333	47
14,89167	47
14,90000	48
14,90833	49
14,91667	50
14,92500	51
14,93333	51
14,94167	51
14,95000	52
14,95833	52
14,96667	53
14,97500	54
14,98333	55
14,99167	55
15,00000	56
15,00833	56
15,01667	56
15,02500	56
15,03333	56
15,04167	55
15,05000	55
15,05833	54
15,06667	54
15,07500	53
15,08333	52
15,09167	51
15,10000	51
15,10833	50
15,11667	49
15,12500	48
15,13333	46
15,14167	45
15,15000	44
15,15833	43
15,16667	42
15,17500	40
15,18333	39
15,19167	39
15,20000	38
15,20833	37
15,21667	36
15,22500	35
15,23333	34
15,24167	34
15,25000	33
15,25833	32
15,26667	32
15,27500	31
15,28333	31
15,29167	30
15,30000	29
15,30833	29
15,31667	29
15,32500	28
15,33333	28
15,34167	28
15,35000	28
15,35833	28
15,36667	28
15,37500	28
15,38333	28
15,39167	28
15,40000	28
15,40833	28
15,41667	28
15,42500	28
15,43333	27
15,44167	27
15,45000	26
15,45833	26
15,46667	25
15,47500	25
15,48333	25
15,49167	25
15,50000	25
15,50833	25
15,51667	25
15,52500	25
15,53333	25
15,54167	25
15,55000	25
15,55833	25
15,56667	25
15,57500	25
15,58333	25
15,59167	25
15,60000	25
15,60833	25
15,61667	25
15,62500	25
15,63333	25
15,64167	25
15,65000	26
15,65833	26
15,66667	27
15,67500	26
15,68333	26
15,69167	25
15,70000	25
15,70833	25
15,71667	24
15,72500	24
15,73333	24
15,74167	24
15,75000	24
15,75833	24
15,76667	24
15,77500	24
15,78333	24
15,79167	24
15,80000	24
15,80833	24
15,81667	24
15,82500	24
15,83333	24
15,84167	24
15,85000	24
15,85833	25
15,86667	25
15,87500	25
15,88333	25
15,89167	25
15,90000	24
15,90833	24
15,91667	24
15,92500	24
15,93333	24
15,94167	24
15,95000	24
15,95833	24
15,96667	24
15,97500	25
15,98333	25
15,99167	25
16,00000	25
16,00833	24
16,01667	24
16,02500	24
16,03333	25
16,04167	25
16,05000	25
16,05833	25
16,06667	25
16,07500	25
16,08333	25
16,09167	25
16,10000	26
16,10833	25
16,11667	25
16,12500	25
16,13333	25
16,14167	24
16,15000	24
16,15833	23
16,16667	24
16,17500	24
16,18333	24
16,19167	24
16,20000	24
16,20833	24
16,21667	24
16,22500	25
16,23333	25
16,24167	25
16,25000	24
16,25833	24
16,26667	25
16,27500	25
16,28333	24
16,29167	25
16,30000	25
16,30833	25
16,31667	25
16,32500	25
16,33333	25
16,34167	25
16,35000	25
16,35833	25
16,36667	25
16,37500	25
16,38333	25
16,39167	25
16,40000	26
16,40833	26
16,41667	25
16,42500	25
16,43333	25
16,44167	25
16,45000	26
16,45833	25
16,46667	25
16,47500	26
16,48333	26
16,49167	25
16,50000	25
16,50833	24
16,51667	24
16,52500	24
16,53333	25
16,54167	25
16,55000	24
16,55833	24
16,56667	25
16,57500	25
16,58333	25
16,59167	26
16,60000	26
16,60833	26
16,61667	26
16,62500	25
16,63333	25
16,64167	25
16,65000	25
16,65833	25
16,66667	25
16,67500	25
16,68333	25
16,69167	25
16,70000	25
16,70833	25
16,71667	25
16,72500	25
16,73333	25
16,74167	25
16,75000	25
16,75833	25
16,76667	25
16,77500	25
16,78333	25
16,79167	26
16,80000	26
16,80833	26
16,81667	25
16,82500	25
16,83333	25
16,84167	25
16,85000	25
16,85833	25
16,86667	26
16,87500	26
16,88333	26
16,89167	26
16,90000	26
16,90833	26
16,91667	26
16,92500	26
16,93333	26
16,94167	26
16,95000	26
16,95833	26
16,96667	26
16,97500	26
16,98333	26
16,99167	26
17,00000	27
17,00833	27
17,01667	27
17,02500	27
17,03333	26
17,04167	27
17,05000	27
17,05833	27
17,06667	27
17,07500	27
17,08333	27
17,09167	27
17,10000	27
17,10833	27
17,11667	27
17,12500	28
17,13333	28
17,14167	28
17,15000	28
17,15833	28
17,16667	29
17,17500	29
17,18333	29
17,19167	29
17,20000	29
17,20833	29
17,21667	29
17,22500	29
17,23333	29
17,24167	30
17,25000	30
17,25833	30
17,26667	30
17,27500	31
17,28333	31
17,29167	32
17,30000	32
17,30833	32
17,31667	32
17,32500	32
17,33333	32
17,34167	32
17,35000	33
17,35833	33
17,36667	33
17,37500	33
17,38333	33
17,39167	33
17,40000	34
17,40833	34
17,41667	34
17,42500	33
17,43333	33
17,44167	33
17,45000	32
17,45833	32
17,46667	31
17,47500	31
17,48333	31
17,49167	31
17,50000	31
17,50833	31
17,51667	31
17,52500	30
17,53333	30
17,54167	30
17,55000	30
17,55833	30
17,56667	30
17,57500	29
17,58333	29
17,59167	29
17,60000	28
17,60833	28
17,61667	28
17,62500	27
17,63333	27
17,64167	26
17,65000	26
17,65833	26
17,66667	26
17,67500	26
17,68333	26
17,69167	26
17,70000	26
17,70833	26
17,71667	26
17,72500	27
17,73333	27
17,74167	27
17,75000	27
17,75833	26
17,76667	26
17,77500	26
17,78333	26
17,79167	26
17,80000	26
17,80833	26
17,81667	26
17,82500	26
17,83333	26
17,84167	25
17,85000	25
17,85833	25
17,86667	25
17,87500	25
17,88333	25
17,89167	25
17,90000	25
17,90833	25
17,91667	25
17,92500	25
17,93333	25
17,94167	25
17,95000	25
17,95833	25
17,96667	25
17,97500	25
17,98333	26
17,99167	26
18,00000	26
18,00833	26
18,01667	26
18,02500	26
18,03333	26
18,04167	26
18,05000	26
18,05833	25
18,06667	25
18,07500	25
18,08333	25
18,09167	25
18,10000	25
18,10833	25
18,11667	26
18,12500	26
18,13333	26
18,14167	26
18,15000	26
18,15833	26
18,16667	25
18,17500	25
18,18333	25
18,19167	25
18,20000	25
18,20833	26
18,21667	26
18,22500	26
18,23333	26
18,24167	26
18,25000	26
18,25833	26
18,26667	26
18,27500	26
18,28333	26
18,29167	26
18,30000	26
18,30833	26
18,31667	26
18,32500	26
18,33333	26
18,34167	26
18,35000	26
18,35833	26
18,36667	25
18,37500	25
18,38333	26
18,39167	26
18,40000	26
18,40833	26
18,41667	27
18,42500	26
18,43333	26
18,44167	26
18,45000	26
18,45833	26
18,46667	26
18,47500	26
18,48333	26
18,49167	26
18,50000	26
18,50833	26
18,51667	25
18,52500	25
18,53333	25
18,54167	25
18,55000	25
18,55833	24
18,56667	24
18,57500	24
18,58333	24
18,59167	25
18,60000	24
18,60833	24
18,61667	24
18,62500	24
18,63333	24
18,64167	24
18,65000	24
18,65833	24
18,66667	24
18,67500	23
18,68333	22
18,69167	22
18,70000	22
18,70833	22
18,71667	22
18,72500	22
18,73333	22
18,74167	22
18,75000	21
18,75833	21
18,76667	20
18,77500	19
18,78333	18
18,79167	18
18,80000	17
18,80833	16
18,81667	16
18,82500	15
18,83333	14
18,84167	13
18,85000	13
18,85833	12
18,86667	11
18,87500	10
18,88333	9
18,89167	8
18,90000	7
18,90833	6
18,91667	5
18,92500	3
18,93333	2
18,94167	1
18,95000	0
18,95833	-1
18,96667	-2
18,97500	-4
18,98333	-5
18,99167	-6
19,00000	-7
19,00833	-8
19,01667	-9
19,02500	-11
19,03333	-12
19,04167	-13
19,05000	-14
19,05833	-15
19,06667	-16
19,07500	-17
19,08333	-17
19,09167	-18
19,10000	-19
19,10833	-19
19,11667	-20
19,12500	-20
19,13333	-20
19,14167	-20
19,15000	-20
19,15833	-20
19,16667	-19
19,17500	-18
19,18333	-17
19,19167	-17
19,20000	-16
19,20833	-15
19,21667	-14
19,22500	-12
19,23333	-11
19,24167	-9
19,25000	-7
19,25833	-5
19,26667	-4
19,27500	-2
19,28333	0
19,29167	2
19,30000	4
19,30833	7
19,31667	9
19,32500	11
19,33333	14
19,34167	16
19,35000	18
19,35833	20
19,36667	23
19,37500	25
19,38333	27
19,39167	29
19,40000	31
19,40833	33
19,41667	35
19,42500	37
19,43333	38
19,44167	40
19,45000	41
19,45833	42
19,46667	43
19,47500	44
19,48333	45
19,49167	45
19,50000	45
19,50833	46
19,51667	46
19,52500	47
19,53333	47
19,54167	47
19,55000	47
19,55833	47
19,56667	47
19,57500	47
19,58333	47
19,59167	46
19,60000	45
19,60833	45
19,61667	44
19,62500	43
19,63333	43
19,64167	42
19,65000	41
19,65833	40
19,66667	39
19,67500	38
19,68333	38
19,69167	37
19,70000	36
19,70833	35
19,71667	35
19,72500	34
19,73333	34
19,74167	33
19,75000	32
19,75833	31
19,76667	30
19,77500	30
19,78333	29
19,79167	29
19,80000	28
19,80833	28
19,81667	27
19,82500	27
19,83333	27
19,84167	26
19,85000	27
19,85833	27
19,86667	27
19,87500	27
19,88333	27
19,89167	26
19,90000	26
19,90833	26
19,91667	26
19,92500	26
19,93333	26
19,94167	26
19,95000	26
19,95833	26
19,96667	26
19,97500	27
19,98333	27
19,99167	27
20,00000	27
20,00833	27
20,01667	27
20,02500	27
20,03333	28
20,04167	28
20,05000	28
20,05833	29
20,06667	29
20,07500	30
20,08333	30
20,09167	30
20,10000	30
20,10833	31
20,11667	31
20,12500	31
20,13333	32
20,14167	33
20,15000	33
20,15833	34
20,16667	34
20,17500	34
20,18333	35
20,19167	36
20,20000	36
20,20833	37
20,21667	38
20,22500	38
20,23333	38
20,24167	38
20,25000	39
20,25833	39
20,26667	39
20,27500	40
20,28333	40
20,29167	40
20,30000	40
20,30833	41
20,31667	41
20,32500	41
20,33333	41
20,34167	41
20,35000	41
20,35833	41
20,36667	41
20,37500	40
20,38333	40
20,39167	40
20,40000	39
20,40833	38
20,41667	38
20,42500	37
20,43333	36
20,44167	35
20,45000	35
20,45833	34
20,46667	34
20,47500	33
20,48333	33
20,49167	32
20,50000	32
20,50833	30
20,51667	29
20,52500	28
20,53333	27
20,54167	26
20,55000	25
20,55833	24
20,56667	23
20,57500	21
20,58333	20
20,59167	19
20,60000	19
20,60833	18
20,61667	17
20,62500	17
20,63333	16
20,64167	16
20,65000	15
20,65833	15
20,66667	14
20,67500	14
20,68333	14
20,69167	14
20,70000	14
20,70833	14
20,71667	14
20,72500	14
20,73333	13
20,74167	13
20,75000	13
20,75833	13
20,76667	13
20,77500	13
20,78333	13
20,79167	13
20,80000	14
20,80833	14
20,81667	14
20,82500	15
20,83333	15
20,84167	16
20,85000	16
20,85833	17
20,86667	17
20,87500	17
20,88333	18
20,89167	18
20,90000	18
20,90833	19
20,91667	19
20,92500	20
20,93333	20
20,94167	20
20,95000	20
20,95833	21
20,96667	21
20,97500	21
20,98333	21
20,99167	21
21,00000	21
21,00833	21
21,01667	21
21,02500	22
21,03333	22
21,04167	22
21,05000	21
21,05833	21
21,06667	21
21,07500	22
21,08333	22
21,09167	23
21,10000	23
21,10833	23
21,11667	23
21,12500	23
21,13333	23
21,14167	23
21,15000	23
21,15833	23
21,16667	25
21,17500	27
21,18333	27
21,19167	27
21,20000	27
21,20833	26
21,21667	26
21,22500	26
21,23333	26
21,24167	26
21,25000	25
21,25833	25
21,26667	26
21,27500	26
21,28333	25
21,29167	25
21,30000	25
21,30833	25
21,31667	25
21,32500	25
21,33333	26
21,34167	26
21,35000	26
21,35833	26
21,36667	26
21,37500	26
21,38333	26
21,39167	26
21,40000	26
21,40833	26
21,41667	26
21,42500	27
21,43333	27
21,44167	27
21,45000	27
21,45833	27
21,46667	27
21,47500	27
21,48333	26
21,49167	26
21,50000	26
21,50833	26
21,51667	26
21,52500	27
21,53333	27
21,54167	27
21,55000	27
21,55833	27
21,56667	27
21,57500	27
21,58333	27
21,59167	27
21,60000	27
21,60833	27
21,61667	26
21,62500	26
21,63333	26
21,64167	26
21,65000	26
21,65833	26
21,66667	26
21,67500	26
21,68333	27
21,69167	27
21,70000	28
21,70833	28
21,71667	28
21,72500	28
21,73333	28
21,74167	27
21,75000	27
21,75833	27
21,76667	27
21,77500	27
21,78333	27
21,79167	28
21,80000	28
21,80833	28
21,81667	28
21,82500	28
21,83333	28
21,84167	27
21,85000	27
21,85833	27
21,86667	27
21,87500	28
21,88333	28
21,89167	28
21,90000	29
21,90833	29
21,91667	28
21,92500	28
21,93333	27
21,94167	27
21,95000	27
21,95833	27
21,96667	27
21,97500	27
21,98333	27
21,99167	27
22,00000	27
22,00833	28
22,01667	28
22,02500	28
22,03333	28
22,04167	28
22,05000	28
22,05833	28
22,06667	28
22,07500	28
22,08333	28
22,09167	28
22,10000	28
22,10833	28
22,11667	28
22,12500	28
22,13333	27
22,14167	27
22,15000	26
22,15833	26
22,16667	27
22,17500	27
22,18333	28
22,19167	28
22,20000	28
22,20833	28
22,21667	28
22,22500	28
22,23333	29
22,24167	29
22,25000	28
22,25833	29
22,26667	29
22,27500	29
22,28333	28
22,29167	28
22,30000	28
22,30833	28
22,31667	28
22,32500	28
22,33333	28
22,34167	28
22,35000	28
22,35833	28
22,36667	28
22,37500	28
22,38333	28
22,39167	28
22,40000	28
22,40833	28
22,41667	28
22,42500	28
22,43333	28
22,44167	28
22,45000	28
22,45833	28
22,46667	27
22,47500	27
22,48333	28
22,49167	28
22,50000	27
22,50833	27
22,51667	27
22,52500	27
22,53333	27
22,54167	27
22,55000	27
22,55833	27
22,56667	27
22,57500	27
22,58333	27
22,59167	27
22,60000	27
22,60833	28
22,61667	28
22,62500	28
22,63333	28
22,64167	29
22,65000	29
22,65833	28
22,66667	28
22,67500	28
22,68333	28
22,69167	28
22,70000	28
22,70833	28
22,71667	28
22,72500	28
22,73333	28
22,74167	28
22,75000	28
22,75833	28
22,76667	28
22,77500	28
22,78333	28
22,79167	28
22,80000	28
22,80833	28
22,81667	28
22,82500	28
22,83333	29
22,84167	29
22,85000	29
22,85833	28
22,86667	28
22,87500	28
22,88333	28
22,89167	28
22,90000	28
22,90833	28
22,91667	27
22,92500	27
22,93333	27
22,94167	27
22,95000	27
22,95833	27
22,96667	27
22,97500	28
22,98333	28
22,99167	28
23,00000	29
23,00833	29
23,01667	29
23,02500	29
23,03333	29
23,04167	29
23,05000	29
23,05833	30
23,06667	30
23,07500	30
23,08333	30
23,09167	29
23,10000	29
23,10833	29
23,11667	29
23,12500	29
23,13333	29
23,14167	30
23,15000	30
23,15833	31
23,16667	31
23,17500	31
23,18333	31
23,19167	31
23,20000	31
23,20833	31
23,21667	31
23,22500	32
23,23333	32
23,24167	32
23,25000	32
23,25833	33
23,26667	33
23,27500	34
23,28333	34
23,29167	35
23,30000	35
23,30833	36
23,31667	36
23,32500	37
23,33333	38
23,34167	39
23,35000	40
23,35833	41
23,36667	42
23,37500	43
23,38333	44
23,39167	44
23,40000	45
23,40833	47
23,41667	48
23,42500	50
23,43333	52
23,44167	54
23,45000	56
23,45833	59
23,46667	61
23,47500	63
23,48333	66
23,49167	68
23,50000	71
23,50833	74
23,51667	77
23,52500	81
23,53333	85
23,54167	89
23,55000	93
23,55833	97
23,56667	102
23,57500	108
23,58333	113
23,59167	119
23,60000	125
23,60833	132
23,61667	138
23,62500	145
23,63333	153
23,64167	162
23,65000	170
23,65833	179
23,66667	189
23,67500	199
23,68333	211
23,69167	223
23,70000	236
23,70833	249
23,71667	263
23,72500	278
23,73333	293
23,74167	310
23,75000	327
23,75833	345
23,76667	365
23,77500	385
23,78333	406
23,79167	428
23,80000	452
23,80833	477
23,81667	503
23,82500	531
23,83333	560
23,84167	590
23,85000	622
23,85833	655
23,86667	690
23,87500	726
23,88333	764
23,89167	803
23,90000	844
23,90833	886
23,91667	931
23,92500	977
23,93333	1025
23,94167	1074
23,95000	1126
23,95833	1178
23,96667	1233
23,97500	1289
23,98333	1347
23,99167	1407
24,00000	1468
24,00833	1530
24,01667	1594
24,02500	1660
24,03333	1727
24,04167	1795
24,05000	1864
24,05833	1934
24,06667	2004
24,07500	2075
24,08333	2146
24,09167	2217
24,10000	2288
24,10833	2359
24,11667	2429
24,12500	2498
24,13333	2566
24,14167	2633
24,15000	2698
24,15833	2760
24,16667	2820
24,17500	2879
24,18333	2934
24,19167	2986
24,20000	3034
24,20833	3079
24,21667	3120
24,22500	3156
24,23333	3188
24,24167	3216
24,25000	3238
24,25833	3256
24,26667	3268
24,27500	3275
24,28333	3277
24,29167	3274
24,30000	3265
24,30833	3251
24,31667	3232
24,32500	3208
24,33333	3178
24,34167	3144
24,35000	3105
24,35833	3061
24,36667	3012
24,37500	2960
24,38333	2904
24,39167	2844
24,40000	2780
24,40833	2714
24,41667	2644
24,42500	2572
24,43333	2498
24,44167	2422
24,45000	2344
24,45833	2265
24,46667	2185
24,47500	2105
24,48333	2024
24,49167	1943
24,50000	1863
24,50833	1783
24,51667	1704
24,52500	1626
24,53333	1548
24,54167	1473
24,55000	1399
24,55833	1327
24,56667	1257
24,57500	1189
24,58333	1123
24,59167	1059
24,60000	997
24,60833	938
24,61667	881
24,62500	827
24,63333	775
24,64167	725
24,65000	678
24,65833	634
24,66667	592
24,67500	552
24,68333	515
24,69167	479
24,70000	445
24,70833	414
24,71667	384
24,72500	356
24,73333	331
24,74167	307
24,75000	285
24,75833	264
24,76667	245
24,77500	227
24,78333	211
24,79167	196
24,80000	181
24,80833	168
24,81667	156
24,82500	145
24,83333	135
24,84167	126
24,85000	118
24,85833	111
24,86667	104
24,87500	98
24,88333	92
24,89167	87
24,90000	82
24,90833	78
24,91667	74
24,92500	71
24,93333	68
24,94167	64
24,95000	61
24,95833	59
24,96667	57
24,97500	56
24,98333	54
24,99167	52
25,00000	51
25,00833	49
25,01667	47
25,02500	46
25,03333	45
25,04167	44
25,05000	43
25,05833	42
25,06667	41
25,07500	41
25,08333	40
25,09167	39
25,10000	39
25,10833	39
25,11667	38
25,12500	37
25,13333	37
25,14167	36
25,15000	36
25,15833	36
25,16667	35
25,17500	35
25,18333	34
25,19167	34
25,20000	34
25,20833	34
25,21667	34
25,22500	34
25,23333	34
25,24167	34
25,25000	34
25,25833	33
25,26667	33
25,27500	33
25,28333	33
25,29167	33
25,30000	32
25,30833	32
25,31667	31
25,32500	31
25,33333	31
25,34167	31
25,35000	31
25,35833	31
25,36667	31
25,37500	31
25,38333	31
25,39167	31
25,40000	31
25,40833	30
25,41667	30
25,42500	30
25,43333	30
25,44167	31
25,45000	31
25,45833	31
25,46667	30
25,47500	30
25,48333	30
25,49167	30
25,50000	31
25,50833	31
25,51667	31
25,52500	31
25,53333	31
25,54167	30
25,55000	30
25,55833	30
25,56667	30
25,57500	30
25,58333	30
25,59167	30
25,60000	30
25,60833	30
25,61667	30
25,62500	29
25,63333	29
25,64167	29
25,65000	29
25,65833	28
25,66667	28
25,67500	29
25,68333	29
25,69167	29
25,70000	29
25,70833	29
25,71667	29
25,72500	30
25,73333	30
25,74167	30
25,75000	30
25,75833	30
25,76667	30
25,77500	29
25,78333	29
25,79167	29
25,80000	29
25,80833	30
25,81667	30
25,82500	29
25,83333	29
25,84167	29
25,85000	29
25,85833	29
25,86667	29
25,87500	29
25,88333	30
25,89167	30
25,90000	30
25,90833	30
25,91667	30
25,92500	30
25,93333	30
25,94167	30
25,95000	30
25,95833	31
25,96667	31
25,97500	31
25,98333	31
25,99167	31
26,00000	31
26,00833	31
26,01667	32
26,02500	32
26,03333	32
26,04167	32
26,05000	32
26,05833	32
26,06667	32
26,07500	33
26,08333	33
26,09167	33
26,10000	32
26,10833	32
26,11667	32
26,12500	32
26,13333	32
26,14167	32
26,15000	32
26,15833	32
26,16667	32
26,17500	31
26,18333	32
26,19167	32
26,20000	31
26,20833	31
26,21667	31
26,22500	31
26,23333	31
26,24167	31
26,25000	31
26,25833	31
26,26667	31
26,27500	31
26,28333	31
26,29167	31
26,30000	31
26,30833	31
26,31667	30
26,32500	30
26,33333	30
26,34167	30
26,35000	30
26,35833	31
26,36667	30
26,37500	30
26,38333	30
26,39167	30
26,40000	30
26,40833	30
26,41667	31
26,42500	30
26,43333	30
26,44167	30
26,45000	30
26,45833	29
26,46667	29
26,47500	29
26,48333	29
26,49167	29
26,50000	29
26,50833	29
26,51667	29
26,52500	29
26,53333	29
26,54167	29
26,55000	28
26,55833	28
26,56667	28
26,57500	28
26,58333	29
26,59167	29
26,60000	29
26,60833	29
26,61667	29
26,62500	29
26,63333	29
26,64167	29
26,65000	29
26,65833	29
26,66667	29
26,67500	29
26,68333	29
26,69167	29
26,70000	29
26,70833	29
26,71667	29
26,72500	29
26,73333	29
26,74167	29
26,75000	29
26,75833	29
26,76667	29
26,77500	29
26,78333	29
26,79167	29
26,80000	29
26,80833	29
26,81667	29
26,82500	29
26,83333	29
26,84167	29
26,85000	29
26,85833	29
26,86667	29
26,87500	29
26,88333	29
26,89167	29
26,90000	29
26,90833	29
26,91667	29
26,92500	29
26,93333	29
26,94167	29
26,95000	29
26,95833	29
26,96667	29
26,97500	29
26,98333	29
26,99167	29
27,00000	29
27,00833	29
27,01667	29
27,02500	29
27,03333	29
27,04167	29
27,05000	29
27,05833	29
27,06667	29
27,07500	29
27,08333	29
27,09167	29
27,10000	30
27,10833	30
27,11667	30
27,12500	30
27,13333	30
27,14167	29
27,15000	29
27,15833	29
27,16667	29
27,17500	29
27,18333	29
27,19167	29
27,20000	29
27,20833	29
27,21667	29
27,22500	29
27,23333	29
27,24167	29
27,25000	29
27,25833	29
27,26667	29
27,27500	30
27,28333	30
27,29167	31
27,30000	31
27,30833	31
27,31667	31
27,32500	31
27,33333	31
27,34167	31
27,35000	32
27,35833	31
27,36667	31
27,37500	31
27,38333	31
27,39167	31
27,40000	31
27,40833	31
27,41667	31
27,42500	31
27,43333	31
27,44167	31
27,45000	31
27,45833	31
27,46667	31
27,47500	31
27,48333	31
27,49167	31
27,50000	31
27,50833	31
27,51667	31
27,52500	31
27,53333	31
27,54167	31
27,55000	31
27,55833	31
27,56667	31
27,57500	31
27,58333	31
27,59167	31
27,60000	31
27,60833	31
27,61667	31
27,62500	31
27,63333	32
27,64167	32
27,65000	32
27,65833	32
27,66667	32
27,67500	32
27,68333	32
27,69167	32
27,70000	32
27,70833	33
27,71667	33
27,72500	33
27,73333	33
27,74167	33
27,75000	33
27,75833	33
27,76667	33
27,77500	33
27,78333	32
27,79167	33
27,80000	33
27,80833	33
27,81667	33
27,82500	33
27,83333	33
27,84167	33
27,85000	33
27,85833	33
27,86667	33
27,87500	33
27,88333	33
27,89167	33
27,90000	33
27,90833	33
27,91667	33
27,92500	33
27,93333	33
27,94167	33
27,95000	33
27,95833	33
27,96667	33
27,97500	33
27,98333	33
27,99167	33
28,00000	33
28,00833	33
28,01667	32
28,02500	32
28,03333	32
28,04167	32
28,05000	32
28,05833	32
28,06667	32
28,07500	32
28,08333	33
28,09167	32
28,10000	32
28,10833	32
28,11667	32
28,12500	32
28,13333	32
28,14167	32
28,15000	33
28,15833	33
28,16667	33
28,17500	33
28,18333	33
28,19167	32
28,20000	32
28,20833	32
28,21667	32
28,22500	32
28,23333	32
28,24167	32
28,25000	32
28,25833	32
28,26667	32
28,27500	32
28,28333	32
28,29167	32
28,30000	33
28,30833	32
28,31667	32
28,32500	32
28,33333	32
28,34167	32
28,35000	32
28,35833	32
28,36667	32
28,37500	32
28,38333	32
28,39167	31
28,40000	31
28,40833	32
28,41667	32
28,42500	32
28,43333	32
28,44167	32
28,45000	32
28,45833	32
28,46667	32
28,47500	32
28,48333	32
28,49167	31
28,50000	31
28,50833	31
28,51667	31
28,52500	31
28,53333	31
28,54167	31
28,55000	31
28,55833	31
28,56667	32
28,57500	32
28,58333	32
28,59167	32
28,60000	31
28,60833	31
28,61667	31
28,62500	31
28,63333	31
28,64167	31
28,65000	31
28,65833	31
28,66667	31
28,67500	31
28,68333	31
28,69167	31
28,70000	31
28,70833	31
28,71667	31
28,72500	31
28,73333	31
28,74167	31
28,75000	31
28,75833	31
28,76667	31
28,77500	31
28,78333	31
28,79167	31
28,80000	31
28,80833	31
28,81667	31
28,82500	31
28,83333	31
28,84167	31
28,85000	31
28,85833	30
28,86667	30
28,87500	30
28,88333	30
28,89167	31
28,90000	31
28,90833	32
28,91667	32
28,92500	32
28,93333	31
28,94167	31
28,95000	32
28,95833	32
28,96667	32
28,97500	32
28,98333	32
28,99167	31
29,00000	31
29,00833	32
29,01667	32
29,02500	32
29,03333	32
29,04167	32
29,05000	32
29,05833	33
29,06667	33
29,07500	33
29,08333	33
29,09167	33
29,10000	33
29,10833	33
29,11667	32
29,12500	32
29,13333	32
29,14167	32
29,15000	32
29,15833	32
29,16667	32
29,17500	32
29,18333	32
29,19167	32
29,20000	32
29,20833	32
29,21667	32
29,22500	33
29,23333	33
29,24167	33
29,25000	34
29,25833	34
29,26667	34
29,27500	34
29,28333	33
29,29167	33
29,30000	33
29,30833	33
29,31667	32
29,32500	32
29,33333	32
29,34167	32
29,35000	32
29,35833	32
29,36667	32
29,37500	33
29,38333	33
29,39167	33
29,40000	33
29,40833	33
29,41667	33
29,42500	33
29,43333	32
29,44167	32
29,45000	32
29,45833	32
29,46667	32
29,47500	32
29,48333	32
29,49167	33
29,50000	33
29,50833	32
29,51667	32
29,52500	32
29,53333	32
29,54167	32
29,55000	32
29,55833	32
29,56667	31
29,57500	31
29,58333	31
29,59167	32
29,60000	32
29,60833	32
29,61667	33
29,62500	33
29,63333	33
29,64167	33
29,65000	33
29,65833	32
29,66667	32
29,67500	32
29,68333	32
29,69167	32
29,70000	32
29,70833	32
29,71667	32
29,72500	32
29,73333	32
29,74167	32
29,75000	32
29,75833	32
29,76667	32
29,77500	32
29,78333	32
29,79167	32
29,80000	31
29,80833	31
29,81667	31
29,82500	32
29,83333	32
29,84167	32
29,85000	32
29,85833	31
29,86667	31
29,87500	31
29,88333	31
29,89167	31
29,90000	31
29,90833	32
29,91667	31
29,92500	31
29,93333	31
29,94167	31
29,95000	30
29,95833	31
29,96667	31
29,97500	31
29,98333	30
29,99167	30
30,00000	30

