R.Time (min)	Intensity
0,00000	0
0,00833	0
0,01667	0
0,02500	-0
0,03333	-1
0,04167	-1
0,05000	-1
0,05833	-1
0,06667	-1
0,07500	-1
0,08333	-1
0,09167	-0
0,10000	-0
0,10833	-0
0,11667	0
0,12500	0
0,13333	1
0,14167	1
0,15000	1
0,15833	1
0,16667	1
0,17500	1
0,18333	1
0,19167	1
0,20000	1
0,20833	2
0,21667	2
0,22500	2
0,23333	2
0,24167	2
0,25000	2
0,25833	2
0,26667	2
0,27500	1
0,28333	1
0,29167	2
0,30000	2
0,30833	3
0,31667	3
0,32500	3
0,33333	3
0,34167	3
0,35000	4
0,35833	4
0,36667	4
0,37500	4
0,38333	4
0,39167	3
0,40000	2
0,40833	2
0,41667	1
0,42500	0
0,43333	-1
0,44167	-1
0,45000	-1
0,45833	-1
0,46667	-1
0,47500	-1
0,48333	-1
0,49167	-1
0,50000	-1
0,50833	-1
0,51667	-1
0,52500	-0
0,53333	0
0,54167	0
0,55000	0
0,55833	0
0,56667	0
0,57500	0
0,58333	0
0,59167	0
0,60000	0
0,60833	0
0,61667	1
0,62500	1
0,63333	1
0,64167	1
0,65000	1
0,65833	1
0,66667	1
0,67500	1
0,68333	1
0,69167	1
0,70000	1
0,70833	1
0,71667	1
0,72500	1
0,73333	2
0,74167	2
0,75000	2
0,75833	2
0,76667	2
0,77500	2
0,78333	2
0,79167	2
0,80000	2
0,80833	2
0,81667	2
0,82500	1
0,83333	1
0,84167	1
0,85000	1
0,85833	1
0,86667	1
0,87500	0
0,88333	0
0,89167	-0
0,90000	-0
0,90833	0
0,91667	0
0,92500	0
0,93333	0
0,94167	0
0,95000	0
0,95833	0
0,96667	0
0,97500	-0
0,98333	-0
0,99167	0
1,00000	0
1,00833	1
1,01667	1
1,02500	1
1,03333	1
1,04167	1
1,05000	1
1,05833	2
1,06667	2
1,07500	2
1,08333	2
1,09167	2
1,10000	1
1,10833	1
1,11667	2
1,12500	2
1,13333	2
1,14167	1
1,15000	1
1,15833	2
1,16667	2
1,17500	2
1,18333	2
1,19167	2
1,20000	2
1,20833	2
1,21667	3
1,22500	3
1,23333	3
1,24167	3
1,25000	3
1,25833	3
1,26667	4
1,27500	4
1,28333	4
1,29167	4
1,30000	4
1,30833	4
1,31667	3
1,32500	3
1,33333	3
1,34167	3
1,35000	3
1,35833	3
1,36667	3
1,37500	3
1,38333	3
1,39167	3
1,40000	4
1,40833	4
1,41667	4
1,42500	4
1,43333	3
1,44167	3
1,45000	3
1,45833	3
1,46667	3
1,47500	3
1,48333	3
1,49167	3
1,50000	3
1,50833	3
1,51667	4
1,52500	4
1,53333	4
1,54167	4
1,55000	4
1,55833	4
1,56667	4
1,57500	4
1,58333	4
1,59167	4
1,60000	4
1,60833	4
1,61667	4
1,62500	4
1,63333	4
1,64167	4
1,65000	4
1,65833	4
1,66667	3
1,67500	3
1,68333	3
1,69167	3
1,70000	3
1,70833	4
1,71667	4
1,72500	4
1,73333	4
1,74167	4
1,75000	4
1,75833	4
1,76667	4
1,77500	4
1,78333	4
1,79167	4
1,80000	5
1,80833	5
1,81667	5
1,82500	4
1,83333	4
1,84167	4
1,85000	4
1,85833	4
1,86667	4
1,87500	4
1,88333	4
1,89167	4
1,90000	4
1,90833	4
1,91667	4
1,92500	4
1,93333	4
1,94167	5
1,95000	5
1,95833	5
1,96667	5
1,97500	5
1,98333	4
1,99167	4
2,00000	4
2,00833	5
2,01667	5
2,02500	4
2,03333	4
2,04167	4
2,05000	4
2,05833	4
2,06667	4
2,07500	4
2,08333	4
2,09167	5
2,10000	5
2,10833	5
2,11667	5
2,12500	5
2,13333	5
2,14167	5
2,15000	5
2,15833	5
2,16667	5
2,17500	5
2,18333	5
2,19167	5
2,20000	5
2,20833	5
2,21667	4
2,22500	4
2,23333	4
2,24167	4
2,25000	4
2,25833	5
2,26667	5
2,27500	5
2,28333	5
2,29167	5
2,30000	5
2,30833	4
2,31667	4
2,32500	4
2,33333	4
2,34167	4
2,35000	5
2,35833	5
2,36667	5
2,37500	5
2,38333	5
2,39167	5
2,40000	5
2,40833	5
2,41667	5
2,42500	5
2,43333	6
2,44167	6
2,45000	6
2,45833	6
2,46667	6
2,47500	6
2,48333	6
2,49167	6
2,50000	6
2,50833	6
2,51667	6
2,52500	6
2,53333	6
2,54167	6
2,55000	6
2,55833	5
2,56667	6
2,57500	6
2,58333	6
2,59167	6
2,60000	6
2,60833	6
2,61667	5
2,62500	5
2,63333	5
2,64167	5
2,65000	5
2,65833	5
2,66667	5
2,67500	5
2,68333	5
2,69167	5
2,70000	5
2,70833	5
2,71667	5
2,72500	5
2,73333	5
2,74167	5
2,75000	5
2,75833	5
2,76667	5
2,77500	5
2,78333	5
2,79167	5
2,80000	5
2,80833	5
2,81667	5
2,82500	4
2,83333	4
2,84167	4
2,85000	4
2,85833	4
2,86667	5
2,87500	5
2,88333	5
2,89167	5
2,90000	5
2,90833	5
2,91667	5
2,92500	5
2,93333	5
2,94167	5
2,95000	5
2,95833	5
2,96667	5
2,97500	5
2,98333	5
2,99167	5
3,00000	5
3,00833	5
3,01667	4
3,02500	4
3,03333	4
3,04167	4
3,05000	4
3,05833	4
3,06667	4
3,07500	4
3,08333	4
3,09167	4
3,10000	5
3,10833	5
3,11667	5
3,12500	5
3,13333	5
3,14167	5
3,15000	5
3,15833	5
3,16667	5
3,17500	5
3,18333	4
3,19167	4
3,20000	4
3,20833	5
3,21667	5
3,22500	5
3,23333	5
3,24167	5
3,25000	4
3,25833	4
3,26667	4
3,27500	4
3,28333	4
3,29167	4
3,30000	4
3,30833	4
3,31667	5
3,32500	5
3,33333	5
3,34167	5
3,35000	5
3,35833	5
3,36667	5
3,37500	5
3,38333	5
3,39167	5
3,40000	4
3,40833	4
3,41667	4
3,42500	4
3,43333	4
3,44167	4
3,45000	4
3,45833	5
3,46667	5
3,47500	5
3,48333	5
3,49167	4
3,50000	5
3,50833	5
3,51667	5
3,52500	5
3,53333	5
3,54167	5
3,55000	5
3,55833	5
3,56667	5
3,57500	5
3,58333	5
3,59167	5
3,60000	5
3,60833	5
3,61667	5
3,62500	5
3,63333	5
3,64167	4
3,65000	4
3,65833	4
3,66667	4
3,67500	5
3,68333	5
3,69167	5
3,70000	5
3,70833	5
3,71667	5
3,72500	5
3,73333	5
3,74167	6
3,75000	6
3,75833	6
3,76667	6
3,77500	6
3,78333	5
3,79167	5
3,80000	5
3,80833	4
3,81667	5
3,82500	5
3,83333	5
3,84167	5
3,85000	5
3,85833	5
3,86667	5
3,87500	5
3,88333	4
3,89167	4
3,90000	4
3,90833	5
3,91667	5
3,92500	5
3,93333	5
3,94167	5
3,95000	5
3,95833	5
3,96667	4
3,97500	4
3,98333	4
3,99167	4
4,00000	4
4,00833	4
4,01667	5
4,02500	5
4,03333	5
4,04167	5
4,05000	5
4,05833	5
4,06667	5
4,07500	5
4,08333	5
4,09167	5
4,10000	5
4,10833	5
4,11667	5
4,12500	5
4,13333	5
4,14167	6
4,15000	6
4,15833	6
4,16667	6
4,17500	6
4,18333	6
4,19167	6
4,20000	6
4,20833	7
4,21667	7
4,22500	7
4,23333	7
4,24167	7
4,25000	7
4,25833	7
4,26667	7
4,27500	7
4,28333	7
4,29167	7
4,30000	7
4,30833	6
4,31667	6
4,32500	6
4,33333	6
4,34167	6
4,35000	6
4,35833	6
4,36667	6
4,37500	7
4,38333	7
4,39167	7
4,40000	7
4,40833	7
4,41667	7
4,42500	7
4,43333	7
4,44167	7
4,45000	7
4,45833	7
4,46667	7
4,47500	7
4,48333	7
4,49167	7
4,50000	7
4,50833	7
4,51667	7
4,52500	7
4,53333	7
4,54167	8
4,55000	8
4,55833	8
4,56667	8
4,57500	8
4,58333	8
4,59167	8
4,60000	8
4,60833	7
4,61667	7
4,62500	7
4,63333	7
4,64167	7
4,65000	8
4,65833	8
4,66667	8
4,67500	8
4,68333	8
4,69167	8
4,70000	8
4,70833	8
4,71667	8
4,72500	8
4,73333	8
4,74167	8
4,75000	8
4,75833	8
4,76667	8
4,77500	7
4,78333	7
4,79167	7
4,80000	7
4,80833	7
4,81667	7
4,82500	7
4,83333	6
4,84167	6
4,85000	6
4,85833	6
4,86667	7
4,87500	7
4,88333	7
4,89167	6
4,90000	6
4,90833	7
4,91667	7
4,92500	7
4,93333	8
4,94167	7
4,95000	7
4,95833	7
4,96667	7
4,97500	7
4,98333	7
4,99167	7
5,00000	7
5,00833	7
5,01667	7
5,02500	7
5,03333	7
5,04167	7
5,05000	7
5,05833	7
5,06667	7
5,07500	7
5,08333	7
5,09167	7
5,10000	7
5,10833	7
5,11667	7
5,12500	7
5,13333	6
5,14167	6
5,15000	6
5,15833	6
5,16667	6
5,17500	6
5,18333	6
5,19167	7
5,20000	7
5,20833	7
5,21667	7
5,22500	7
5,23333	7
5,24167	7
5,25000	7
5,25833	7
5,26667	7
5,27500	7
5,28333	7
5,29167	7
5,30000	7
5,30833	7
5,31667	7
5,32500	7
5,33333	7
5,34167	7
5,35000	7
5,35833	7
5,36667	7
5,37500	7
5,38333	7
5,39167	8
5,40000	8
5,40833	8
5,41667	7
5,42500	7
5,43333	7
5,44167	7
5,45000	8
5,45833	8
5,46667	8
5,47500	8
5,48333	7
5,49167	7
5,50000	7
5,50833	7
5,51667	7
5,52500	7
5,53333	7
5,54167	7
5,55000	7
5,55833	7
5,56667	7
5,57500	7
5,58333	7
5,59167	7
5,60000	7
5,60833	8
5,61667	8
5,62500	8
5,63333	8
5,64167	8
5,65000	8
5,65833	8
5,66667	8
5,67500	8
5,68333	8
5,69167	7
5,70000	7
5,70833	7
5,71667	8
5,72500	8
5,73333	8
5,74167	7
5,75000	7
5,75833	7
5,76667	7
5,77500	7
5,78333	7
5,79167	7
5,80000	7
5,80833	7
5,81667	7
5,82500	7
5,83333	7
5,84167	8
5,85000	8
5,85833	8
5,86667	8
5,87500	8
5,88333	8
5,89167	8
5,90000	8
5,90833	8
5,91667	8
5,92500	9
5,93333	9
5,94167	9
5,95000	9
5,95833	10
5,96667	10
5,97500	10
5,98333	10
5,99167	10
6,00000	10
6,00833	11
6,01667	11
6,02500	12
6,03333	12
6,04167	12
6,05000	12
6,05833	13
6,06667	13
6,07500	14
6,08333	16
6,09167	18
6,10000	21
6,10833	25
6,11667	32
6,12500	42
6,13333	57
6,14167	79
6,15000	111
6,15833	159
6,16667	231
6,17500	334
6,18333	481
6,19167	689
6,20000	977
6,20833	1370
6,21667	1895
6,22500	2587
6,23333	3483
6,24167	4625
6,25000	6054
6,25833	7816
6,26667	9955
6,27500	12514
6,28333	15535
6,29167	19056
6,30000	23111
6,30833	27728
6,31667	32932
6,32500	38740
6,33333	45167
6,34167	52219
6,35000	59897
6,35833	68199
6,36667	77118
6,37500	86642
6,38333	96752
6,39167	107427
6,40000	118643
6,40833	130368
6,41667	142560
6,42500	155176
6,43333	168161
6,44167	181443
6,45000	194918
6,45833	208429
6,46667	221728
6,47500	234422
6,48333	245947
6,49167	255572
6,50000	262465
6,50833	265822
6,51667	265018
6,52500	259741
6,53333	250067
6,54167	236460
6,55000	219686
6,55833	200689
6,56667	180459
6,57500	159922
6,58333	139863
6,59167	120880
6,60000	103379
6,60833	87598
6,61667	73630
6,62500	61461
6,63333	50999
6,64167	42109
6,65000	34627
6,65833	28386
6,66667	23215
6,67500	18960
6,68333	15477
6,69167	12638
6,70000	10332
6,70833	8466
6,71667	6958
6,72500	5742
6,73333	4762
6,74167	3971
6,75000	3333
6,75833	2816
6,76667	2397
6,77500	2056
6,78333	1777
6,79167	1548
6,80000	1359
6,80833	1202
6,81667	1070
6,82500	960
6,83333	866
6,84167	786
6,85000	717
6,85833	658
6,86667	606
6,87500	561
6,88333	521
6,89167	486
6,90000	455
6,90833	427
6,91667	403
6,92500	381
6,93333	361
6,94167	343
6,95000	326
6,95833	310
6,96667	296
6,97500	284
6,98333	272
6,99167	261
7,00000	250
7,00833	241
7,01667	232
7,02500	223
7,03333	215
7,04167	208
7,05000	201
7,05833	194
7,06667	188
7,07500	182
7,08333	177
7,09167	172
7,10000	167
7,10833	162
7,11667	158
7,12500	154
7,13333	150
7,14167	146
7,15000	143
7,15833	139
7,16667	136
7,17500	132
7,18333	129
7,19167	126
7,20000	124
7,20833	121
7,21667	118
7,22500	115
7,23333	112
7,24167	109
7,25000	107
7,25833	105
7,26667	103
7,27500	100
7,28333	98
7,29167	96
7,30000	93
7,30833	91
7,31667	90
7,32500	88
7,33333	86
7,34167	85
7,35000	83
7,35833	82
7,36667	80
7,37500	79
7,38333	77
7,39167	76
7,40000	74
7,40833	73
7,41667	72
7,42500	71
7,43333	70
7,44167	69
7,45000	68
7,45833	67
7,46667	65
7,47500	64
7,48333	63
7,49167	62
7,50000	61
7,50833	60
7,51667	59
7,52500	58
7,53333	58
7,54167	58
7,55000	57
7,55833	56
7,56667	55
7,57500	54
7,58333	54
7,59167	53
7,60000	53
7,60833	52
7,61667	51
7,62500	50
7,63333	50
7,64167	49
7,65000	49
7,65833	49
7,66667	48
7,67500	47
7,68333	46
7,69167	45
7,70000	45
7,70833	44
7,71667	44
7,72500	43
7,73333	43
7,74167	42
7,75000	42
7,75833	42
7,76667	42
7,77500	42
7,78333	41
7,79167	41
7,80000	40
7,80833	40
7,81667	39
7,82500	39
7,83333	39
7,84167	38
7,85000	38
7,85833	38
7,86667	37
7,87500	37
7,88333	37
7,89167	36
7,90000	36
7,90833	36
7,91667	36
7,92500	35
7,93333	35
7,94167	34
7,95000	34
7,95833	34
7,96667	33
7,97500	33
7,98333	33
7,99167	32
8,00000	31
8,00833	31
8,01667	31
8,02500	31
8,03333	30
8,04167	30
8,05000	30
8,05833	30
8,06667	30
8,07500	30
8,08333	30
8,09167	30
8,10000	30
8,10833	30
8,11667	29
8,12500	29
8,13333	28
8,14167	28
8,15000	28
8,15833	28
8,16667	27
8,17500	27
8,18333	27
8,19167	27
8,20000	27
8,20833	27
8,21667	26
8,22500	26
8,23333	26
8,24167	26
8,25000	25
8,25833	25
8,26667	25
8,27500	25
8,28333	25
8,29167	25
8,30000	25
8,30833	25
8,31667	25
8,32500	24
8,33333	23
8,34167	23
8,35000	23
8,35833	23
8,36667	23
8,37500	23
8,38333	23
8,39167	23
8,40000	23
8,40833	23
8,41667	22
8,42500	22
8,43333	22
8,44167	22
8,45000	22
8,45833	22
8,46667	22
8,47500	22
8,48333	22
8,49167	21
8,50000	21
8,50833	20
8,51667	20
8,52500	20
8,53333	19
8,54167	20
8,55000	20
8,55833	20
8,56667	21
8,57500	21
8,58333	20
8,59167	20
8,60000	20
8,60833	20
8,61667	20
8,62500	20
8,63333	20
8,64167	20
8,65000	20
8,65833	20
8,66667	20
8,67500	19
8,68333	19
8,69167	19
8,70000	19
8,70833	18
8,71667	18
8,72500	19
8,73333	19
8,74167	19
8,75000	19
8,75833	18
8,76667	18
8,77500	19
8,78333	19
8,79167	18
8,80000	18
8,80833	18
8,81667	18
8,82500	18
8,83333	17
8,84167	17
8,85000	17
8,85833	17
8,86667	17
8,87500	17
8,88333	17
8,89167	18
8,90000	18
8,90833	18
8,91667	18
8,92500	18
8,93333	17
8,94167	17
8,95000	18
8,95833	18
8,96667	18
8,97500	18
8,98333	18
8,99167	18
9,00000	18
9,00833	18
9,01667	18
9,02500	19
9,03333	19
9,04167	19
9,05000	19
9,05833	19
9,06667	19
9,07500	19
9,08333	19
9,09167	19
9,10000	19
9,10833	19
9,11667	19
9,12500	19
9,13333	18
9,14167	18
9,15000	18
9,15833	17
9,16667	17
9,17500	17
9,18333	16
9,19167	16
9,20000	16
9,20833	16
9,21667	16
9,22500	16
9,23333	15
9,24167	15
9,25000	15
9,25833	15
9,26667	15
9,27500	15
9,28333	15
9,29167	15
9,30000	15
9,30833	14
9,31667	14
9,32500	14
9,33333	14
9,34167	14
9,35000	14
9,35833	14
9,36667	14
9,37500	14
9,38333	14
9,39167	14
9,40000	14
9,40833	14
9,41667	13
9,42500	13
9,43333	13
9,44167	13
9,45000	13
9,45833	12
9,46667	12
9,47500	12
9,48333	12
9,49167	12
9,50000	13
9,50833	13
9,51667	14
9,52500	14
9,53333	14
9,54167	14
9,55000	14
9,55833	14
9,56667	14
9,57500	14
9,58333	14
9,59167	14
9,60000	13
9,60833	13
9,61667	13
9,62500	13
9,63333	12
9,64167	12
9,65000	13
9,65833	13
9,66667	13
9,67500	13
9,68333	13
9,69167	12
9,70000	13
9,70833	13
9,71667	13
9,72500	13
9,73333	13
9,74167	13
9,75000	13
9,75833	13
9,76667	13
9,77500	13
9,78333	13
9,79167	13
9,80000	13
9,80833	14
9,81667	14
9,82500	14
9,83333	14
9,84167	14
9,85000	14
9,85833	13
9,86667	13
9,87500	14
9,88333	14
9,89167	14
9,90000	14
9,90833	14
9,91667	14
9,92500	14
9,93333	14
9,94167	14
9,95000	14
9,95833	14
9,96667	14
9,97500	14
9,98333	14
9,99167	14
10,00000	14
10,00833	14
10,01667	14
10,02500	14
10,03333	14
10,04167	14
10,05000	13
10,05833	13
10,06667	13
10,07500	13
10,08333	13
10,09167	13
10,10000	13
10,10833	13
10,11667	13
10,12500	13
10,13333	13
10,14167	13
10,15000	13
10,15833	13
10,16667	13
10,17500	13
10,18333	12
10,19167	12
10,20000	13
10,20833	13
10,21667	13
10,22500	13
10,23333	12
10,24167	12
10,25000	12
10,25833	12
10,26667	12
10,27500	12
10,28333	12
10,29167	12
10,30000	12
10,30833	12
10,31667	12
10,32500	12
10,33333	12
10,34167	12
10,35000	13
10,35833	13
10,36667	13
10,37500	13
10,38333	13
10,39167	12
10,40000	12
10,40833	12
10,41667	11
10,42500	11
10,43333	11
10,44167	11
10,45000	11
10,45833	12
10,46667	12
10,47500	12
10,48333	12
10,49167	12
10,50000	12
10,50833	12
10,51667	13
10,52500	13
10,53333	13
10,54167	13
10,55000	13
10,55833	13
10,56667	12
10,57500	12
10,58333	13
10,59167	13
10,60000	13
10,60833	13
10,61667	13
10,62500	12
10,63333	12
10,64167	12
10,65000	13
10,65833	12
10,66667	12
10,67500	12
10,68333	12
10,69167	11
10,70000	11
10,70833	11
10,71667	11
10,72500	11
10,73333	11
10,74167	11
10,75000	11
10,75833	11
10,76667	10
10,77500	10
10,78333	10
10,79167	10
10,80000	10
10,80833	11
10,81667	11
10,82500	10
10,83333	10
10,84167	10
10,85000	10
10,85833	10
10,86667	10
10,87500	10
10,88333	10
10,89167	11
10,90000	11
10,90833	11
10,91667	11
10,92500	11
10,93333	11
10,94167	11
10,95000	11
10,95833	11
10,96667	11
10,97500	10
10,98333	10
10,99167	10
11,00000	11
11,00833	11
11,01667	11
11,02500	11
11,03333	11
11,04167	11
11,05000	11
11,05833	11
11,06667	11
11,07500	11
11,08333	11
11,09167	11
11,10000	11
11,10833	11
11,11667	12
11,12500	12
11,13333	12
11,14167	12
11,15000	12
11,15833	12
11,16667	12
11,17500	12
11,18333	11
11,19167	11
11,20000	11
11,20833	11
11,21667	11
11,22500	11
11,23333	11
11,24167	12
11,25000	12
11,25833	12
11,26667	12
11,27500	12
11,28333	12
11,29167	12
11,30000	12
11,30833	12
11,31667	12
11,32500	12
11,33333	11
11,34167	11
11,35000	11
11,35833	11
11,36667	12
11,37500	12
11,38333	12
11,39167	12
11,40000	13
11,40833	12
11,41667	12
11,42500	12
11,43333	12
11,44167	12
11,45000	12
11,45833	13
11,46667	13
11,47500	13
11,48333	13
11,49167	13
11,50000	13
11,50833	13
11,51667	13
11,52500	13
11,53333	13
11,54167	13
11,55000	13
11,55833	13
11,56667	13
11,57500	13
11,58333	13
11,59167	13
11,60000	13
11,60833	13
11,61667	13
11,62500	13
11,63333	13
11,64167	13
11,65000	13
11,65833	13
11,66667	13
11,67500	13
11,68333	13
11,69167	13
11,70000	13
11,70833	13
11,71667	13
11,72500	13
11,73333	13
11,74167	13
11,75000	14
11,75833	14
11,76667	14
11,77500	14
11,78333	14
11,79167	14
11,80000	14
11,80833	13
11,81667	13
11,82500	13
11,83333	14
11,84167	14
11,85000	14
11,85833	15
11,86667	14
11,87500	14
11,88333	14
11,89167	14
11,90000	14
11,90833	14
11,91667	14
11,92500	14
11,93333	14
11,94167	14
11,95000	14
11,95833	14
11,96667	14
11,97500	14
11,98333	14
11,99167	15
12,00000	15
12,00833	15
12,01667	15
12,02500	15
12,03333	15
12,04167	14
12,05000	14
12,05833	14
12,06667	14
12,07500	14
12,08333	14
12,09167	14
12,10000	14
12,10833	14
12,11667	14
12,12500	14
12,13333	14
12,14167	14
12,15000	14
12,15833	14
12,16667	14
12,17500	14
12,18333	14
12,19167	14
12,20000	14
12,20833	14
12,21667	14
12,22500	14
12,23333	14
12,24167	15
12,25000	15
12,25833	15
12,26667	15
12,27500	15
12,28333	16
12,29167	16
12,30000	16
12,30833	16
12,31667	16
12,32500	15
12,33333	15
12,34167	15
12,35000	16
12,35833	16
12,36667	16
12,37500	16
12,38333	16
12,39167	16
12,40000	16
12,40833	16
12,41667	17
12,42500	17
12,43333	17
12,44167	17
12,45000	17
12,45833	17
12,46667	17
12,47500	17
12,48333	17
12,49167	16
12,50000	16
12,50833	15
12,51667	15
12,52500	15
12,53333	15
12,54167	16
12,55000	16
12,55833	16
12,56667	16
12,57500	16
12,58333	15
12,59167	15
12,60000	15
12,60833	15
12,61667	15
12,62500	15
12,63333	15
12,64167	15
12,65000	15
12,65833	15
12,66667	15
12,67500	15
12,68333	15
12,69167	15
12,70000	14
12,70833	14
12,71667	14
12,72500	14
12,73333	14
12,74167	13
12,75000	13
12,75833	13
12,76667	13
12,77500	14
12,78333	14
12,79167	15
12,80000	15
12,80833	15
12,81667	16
12,82500	16
12,83333	16
12,84167	16
12,85000	15
12,85833	15
12,86667	15
12,87500	15
12,88333	15
12,89167	15
12,90000	15
12,90833	14
12,91667	14
12,92500	14
12,93333	14
12,94167	14
12,95000	14
12,95833	14
12,96667	14
12,97500	14
12,98333	14
12,99167	14
13,00000	14
13,00833	14
13,01667	14
13,02500	14
13,03333	13
13,04167	13
13,05000	13
13,05833	14
13,06667	14
13,07500	14
13,08333	14
13,09167	14
13,10000	14
13,10833	14
13,11667	14
13,12500	14
13,13333	14
13,14167	14
13,15000	13
13,15833	13
13,16667	13
13,17500	13
13,18333	13
13,19167	13
13,20000	13
13,20833	13
13,21667	13
13,22500	13
13,23333	13
13,24167	13
13,25000	13
13,25833	13
13,26667	12
13,27500	12
13,28333	13
13,29167	13
13,30000	13
13,30833	13
13,31667	13
13,32500	13
13,33333	13
13,34167	13
13,35000	13
13,35833	14
13,36667	13
13,37500	13
13,38333	14
13,39167	14
13,40000	14
13,40833	14
13,41667	14
13,42500	14
13,43333	14
13,44167	14
13,45000	14
13,45833	14
13,46667	14
13,47500	14
13,48333	14
13,49167	14
13,50000	14
13,50833	14
13,51667	14
13,52500	14
13,53333	14
13,54167	15
13,55000	14
13,55833	14
13,56667	14
13,57500	14
13,58333	15
13,59167	15
13,60000	15
13,60833	15
13,61667	15
13,62500	15
13,63333	15
13,64167	15
13,65000	15
13,65833	15
13,66667	15
13,67500	15
13,68333	15
13,69167	15
13,70000	15
13,70833	15
13,71667	16
13,72500	16
13,73333	16
13,74167	16
13,75000	16
13,75833	16
13,76667	16
13,77500	16
13,78333	17
13,79167	16
13,80000	16
13,80833	16
13,81667	17
13,82500	17
13,83333	17
13,84167	16
13,85000	16
13,85833	16
13,86667	16
13,87500	16
13,88333	17
13,89167	16
13,90000	16
13,90833	17
13,91667	17
13,92500	17
13,93333	16
13,94167	16
13,95000	16
13,95833	16
13,96667	16
13,97500	16
13,98333	16
13,99167	16
14,00000	16
14,00833	16
14,01667	17
14,02500	17
14,03333	17
14,04167	18
14,05000	18
14,05833	18
14,06667	18
14,07500	18
14,08333	19
14,09167	19
14,10000	20
14,10833	21
14,11667	21
14,12500	22
14,13333	22
14,14167	23
14,15000	23
14,15833	24
14,16667	25
14,17500	26
14,18333	27
14,19167	28
14,20000	29
14,20833	30
14,21667	30
14,22500	31
14,23333	32
14,24167	33
14,25000	34
14,25833	35
14,26667	36
14,27500	36
14,28333	37
14,29167	37
14,30000	37
14,30833	37
14,31667	37
14,32500	37
14,33333	37
14,34167	37
14,35000	37
14,35833	37
14,36667	36
14,37500	36
14,38333	35
14,39167	35
14,40000	34
14,40833	34
14,41667	33
14,42500	32
14,43333	32
14,44167	31
14,45000	30
14,45833	29
14,46667	28
14,47500	27
14,48333	26
14,49167	25
14,50000	24
14,50833	23
14,51667	22
14,52500	22
14,53333	21
14,54167	20
14,55000	20
14,55833	19
14,56667	19
14,57500	18
14,58333	18
14,59167	18
14,60000	17
14,60833	17
14,61667	17
14,62500	16
14,63333	16
14,64167	16
14,65000	16
14,65833	16
14,66667	15
14,67500	15
14,68333	16
14,69167	15
14,70000	15
14,70833	15
14,71667	15
14,72500	15
14,73333	15
14,74167	15
14,75000	14
14,75833	14
14,76667	14
14,77500	15
14,78333	15
14,79167	15
14,80000	15
14,80833	15
14,81667	14
14,82500	14
14,83333	14
14,84167	14
14,85000	14
14,85833	14
14,86667	15
14,87500	15
14,88333	15
14,89167	15
14,90000	14
14,90833	14
14,91667	14
14,92500	14
14,93333	14
14,94167	14
14,95000	14
14,95833	15
14,96667	15
14,97500	15
14,98333	16
14,99167	16
15,00000	16
15,00833	15
15,01667	15
15,02500	15
15,03333	15
15,04167	14
15,05000	14
15,05833	14
15,06667	14
15,07500	14
15,08333	14
15,09167	14
15,10000	15
15,10833	15
15,11667	15
15,12500	16
15,13333	16
15,14167	16
15,15000	15
15,15833	15
15,16667	15
15,17500	15
15,18333	15
15,19167	15
15,20000	15
15,20833	15
15,21667	15
15,22500	15
15,23333	15
15,24167	16
15,25000	15
15,25833	15
15,26667	15
15,27500	15
15,28333	15
15,29167	15
15,30000	14
15,30833	15
15,31667	15
15,32500	15
15,33333	15
15,34167	15
15,35000	15
15,35833	15
15,36667	15
15,37500	15
15,38333	15
15,39167	15
15,40000	15
15,40833	15
15,41667	15
15,42500	15
15,43333	15
15,44167	15
15,45000	15
15,45833	15
15,46667	14
15,47500	15
15,48333	15
15,49167	15
15,50000	15
15,50833	15
15,51667	14
15,52500	14
15,53333	14
15,54167	14
15,55000	14
15,55833	14
15,56667	14
15,57500	14
15,58333	14
15,59167	15
15,60000	15
15,60833	15
15,61667	15
15,62500	15
15,63333	15
15,64167	14
15,65000	14
15,65833	14
15,66667	15
15,67500	15
15,68333	15
15,69167	15
15,70000	15
15,70833	15
15,71667	15
15,72500	15
15,73333	15
15,74167	16
15,75000	15
15,75833	15
15,76667	15
15,77500	15
15,78333	15
15,79167	15
15,80000	15
15,80833	15
15,81667	15
15,82500	15
15,83333	15
15,84167	15
15,85000	15
15,85833	15
15,86667	15
15,87500	15
15,88333	15
15,89167	16
15,90000	16
15,90833	17
15,91667	16
15,92500	16
15,93333	16
15,94167	16
15,95000	16
15,95833	16
15,96667	16
15,97500	16
15,98333	16
15,99167	16
16,00000	16
16,00833	16
16,01667	16
16,02500	16
16,03333	16
16,04167	16
16,05000	16
16,05833	16
16,06667	17
16,07500	17
16,08333	17
16,09167	16
16,10000	16
16,10833	16
16,11667	16
16,12500	17
16,13333	17
16,14167	17
16,15000	17
16,15833	17
16,16667	17
16,17500	17
16,18333	17
16,19167	17
16,20000	16
16,20833	16
16,21667	16
16,22500	16
16,23333	17
16,24167	17
16,25000	17
16,25833	17
16,26667	17
16,27500	17
16,28333	16
16,29167	16
16,30000	17
16,30833	17
16,31667	17
16,32500	16
16,33333	17
16,34167	17
16,35000	16
16,35833	16
16,36667	17
16,37500	17
16,38333	17
16,39167	17
16,40000	17
16,40833	17
16,41667	16
16,42500	16
16,43333	17
16,44167	17
16,45000	17
16,45833	16
16,46667	16
16,47500	16
16,48333	16
16,49167	16
16,50000	16
16,50833	16
16,51667	16
16,52500	16
16,53333	16
16,54167	16
16,55000	16
16,55833	16
16,56667	16
16,57500	16
16,58333	16
16,59167	16
16,60000	16
16,60833	17
16,61667	17
16,62500	17
16,63333	17
16,64167	17
16,65000	17
16,65833	16
16,66667	16
16,67500	16
16,68333	16
16,69167	16
16,70000	17
16,70833	17
16,71667	17
16,72500	17
16,73333	17
16,74167	16
16,75000	15
16,75833	15
16,76667	15
16,77500	15
16,78333	15
16,79167	16
16,80000	15
16,80833	15
16,81667	15
16,82500	16
16,83333	16
16,84167	17
16,85000	17
16,85833	17
16,86667	17
16,87500	17
16,88333	16
16,89167	16
16,90000	16
16,90833	16
16,91667	16
16,92500	17
16,93333	17
16,94167	17
16,95000	17
16,95833	16
16,96667	16
16,97500	16
16,98333	16
16,99167	17
17,00000	17
17,00833	16
17,01667	17
17,02500	17
17,03333	18
17,04167	18
17,05000	18
17,05833	17
17,06667	16
17,07500	15
17,08333	15
17,09167	15
17,10000	15
17,10833	16
17,11667	16
17,12500	16
17,13333	16
17,14167	16
17,15000	16
17,15833	16
17,16667	16
17,17500	16
17,18333	16
17,19167	16
17,20000	15
17,20833	15
17,21667	15
17,22500	15
17,23333	15
17,24167	15
17,25000	15
17,25833	16
17,26667	16
17,27500	16
17,28333	16
17,29167	16
17,30000	16
17,30833	17
17,31667	16
17,32500	16
17,33333	16
17,34167	16
17,35000	17
17,35833	17
17,36667	17
17,37500	17
17,38333	17
17,39167	17
17,40000	16
17,40833	16
17,41667	16
17,42500	16
17,43333	16
17,44167	16
17,45000	15
17,45833	15
17,46667	15
17,47500	16
17,48333	16
17,49167	16
17,50000	16
17,50833	17
17,51667	17
17,52500	17
17,53333	16
17,54167	16
17,55000	16
17,55833	16
17,56667	16
17,57500	16
17,58333	16
17,59167	16
17,60000	16
17,60833	16
17,61667	16
17,62500	15
17,63333	15
17,64167	16
17,65000	16
17,65833	16
17,66667	16
17,67500	16
17,68333	17
17,69167	17
17,70000	17
17,70833	17
17,71667	17
17,72500	17
17,73333	17
17,74167	16
17,75000	16
17,75833	16
17,76667	17
17,77500	17
17,78333	17
17,79167	17
17,80000	17
17,80833	16
17,81667	16
17,82500	16
17,83333	16
17,84167	17
17,85000	17
17,85833	17
17,86667	17
17,87500	17
17,88333	17
17,89167	17
17,90000	17
17,90833	17
17,91667	17
17,92500	17
17,93333	17
17,94167	17
17,95000	17
17,95833	17
17,96667	17
17,97500	17
17,98333	17
17,99167	17
18,00000	16
18,00833	16
18,01667	16
18,02500	16
18,03333	16
18,04167	16
18,05000	16
18,05833	16
18,06667	16
18,07500	16
18,08333	16
18,09167	16
18,10000	16
18,10833	16
18,11667	16
18,12500	16
18,13333	16
18,14167	16
18,15000	16
18,15833	16
18,16667	16
18,17500	17
18,18333	17
18,19167	17
18,20000	17
18,20833	17
18,21667	17
18,22500	16
18,23333	16
18,24167	16
18,25000	16
18,25833	16
18,26667	16
18,27500	16
18,28333	16
18,29167	16
18,30000	16
18,30833	16
18,31667	16
18,32500	17
18,33333	17
18,34167	17
18,35000	17
18,35833	17
18,36667	16
18,37500	16
18,38333	16
18,39167	16
18,40000	16
18,40833	16
18,41667	16
18,42500	17
18,43333	17
18,44167	17
18,45000	17
18,45833	17
18,46667	16
18,47500	16
18,48333	16
18,49167	16
18,50000	17
18,50833	17
18,51667	17
18,52500	17
18,53333	17
18,54167	17
18,55000	17
18,55833	17
18,56667	16
18,57500	16
18,58333	15
18,59167	15
18,60000	15
18,60833	15
18,61667	15
18,62500	15
18,63333	14
18,64167	14
18,65000	14
18,65833	14
18,66667	13
18,67500	13
18,68333	13
18,69167	13
18,70000	13
18,70833	12
18,71667	11
18,72500	11
18,73333	10
18,74167	9
18,75000	8
18,75833	7
18,76667	7
18,77500	6
18,78333	4
18,79167	3
18,80000	1
18,80833	-1
18,81667	-2
18,82500	-3
18,83333	-4
18,84167	-5
18,85000	-7
18,85833	-9
18,86667	-11
18,87500	-12
18,88333	-14
18,89167	-16
18,90000	-19
18,90833	-21
18,91667	-23
18,92500	-26
18,93333	-29
18,94167	-32
18,95000	-34
18,95833	-37
18,96667	-39
18,97500	-41
18,98333	-44
18,99167	-46
19,00000	-49
19,00833	-51
19,01667	-54
19,02500	-57
19,03333	-59
19,04167	-62
19,05000	-64
19,05833	-67
19,06667	-70
19,07500	-72
19,08333	-74
19,09167	-76
19,10000	-77
19,10833	-79
19,11667	-79
19,12500	-80
19,13333	-81
19,14167	-82
19,15000	-82
19,15833	-83
19,16667	-83
19,17500	-83
19,18333	-82
19,19167	-81
19,20000	-81
19,20833	-80
19,21667	-79
19,22500	-78
19,23333	-76
19,24167	-75
19,25000	-72
19,25833	-70
19,26667	-68
19,27500	-65
19,28333	-62
19,29167	-60
19,30000	-57
19,30833	-54
19,31667	-52
19,32500	-49
19,33333	-46
19,34167	-44
19,35000	-41
19,35833	-38
19,36667	-35
19,37500	-33
19,38333	-30
19,39167	-28
19,40000	-25
19,40833	-22
19,41667	-20
19,42500	-17
19,43333	-15
19,44167	-13
19,45000	-11
19,45833	-9
19,46667	-7
19,47500	-5
19,48333	-3
19,49167	-2
19,50000	-0
19,50833	1
19,51667	2
19,52500	4
19,53333	5
19,54167	6
19,55000	7
19,55833	8
19,56667	9
19,57500	10
19,58333	11
19,59167	11
19,60000	12
19,60833	12
19,61667	13
19,62500	14
19,63333	14
19,64167	14
19,65000	14
19,65833	15
19,66667	15
19,67500	15
19,68333	15
19,69167	15
19,70000	15
19,70833	15
19,71667	15
19,72500	15
19,73333	14
19,74167	14
19,75000	14
19,75833	14
19,76667	14
19,77500	14
19,78333	14
19,79167	14
19,80000	15
19,80833	15
19,81667	15
19,82500	15
19,83333	15
19,84167	15
19,85000	15
19,85833	14
19,86667	13
19,87500	13
19,88333	12
19,89167	12
19,90000	12
19,90833	12
19,91667	12
19,92500	12
19,93333	11
19,94167	11
19,95000	11
19,95833	10
19,96667	10
19,97500	9
19,98333	9
19,99167	9
20,00000	8
20,00833	7
20,01667	7
20,02500	6
20,03333	5
20,04167	4
20,05000	3
20,05833	2
20,06667	1
20,07500	1
20,08333	-0
20,09167	-1
20,10000	-3
20,10833	-4
20,11667	-5
20,12500	-7
20,13333	-8
20,14167	-9
20,15000	-11
20,15833	-12
20,16667	-14
20,17500	-15
20,18333	-17
20,19167	-19
20,20000	-21
20,20833	-22
20,21667	-23
20,22500	-25
20,23333	-27
20,24167	-29
20,25000	-31
20,25833	-33
20,26667	-34
20,27500	-36
20,28333	-38
20,29167	-40
20,30000	-41
20,30833	-43
20,31667	-44
20,32500	-46
20,33333	-47
20,34167	-48
20,35000	-50
20,35833	-51
20,36667	-51
20,37500	-52
20,38333	-53
20,39167	-54
20,40000	-55
20,40833	-55
20,41667	-56
20,42500	-56
20,43333	-56
20,44167	-56
20,45000	-57
20,45833	-57
20,46667	-56
20,47500	-56
20,48333	-55
20,49167	-55
20,50000	-55
20,50833	-55
20,51667	-54
20,52500	-54
20,53333	-53
20,54167	-52
20,55000	-51
20,55833	-49
20,56667	-48
20,57500	-48
20,58333	-47
20,59167	-46
20,60000	-44
20,60833	-43
20,61667	-42
20,62500	-40
20,63333	-39
20,64167	-37
20,65000	-36
20,65833	-34
20,66667	-33
20,67500	-31
20,68333	-30
20,69167	-28
20,70000	-27
20,70833	-26
20,71667	-24
20,72500	-23
20,73333	-21
20,74167	-19
20,75000	-18
20,75833	-16
20,76667	-15
20,77500	-14
20,78333	-13
20,79167	-12
20,80000	-11
20,80833	-9
20,81667	-8
20,82500	-7
20,83333	-6
20,84167	-4
20,85000	-3
20,85833	-2
20,86667	-1
20,87500	0
20,88333	1
20,89167	2
20,90000	3
20,90833	4
20,91667	5
20,92500	5
20,93333	6
20,94167	7
20,95000	8
20,95833	8
20,96667	9
20,97500	10
20,98333	10
20,99167	11
21,00000	11
21,00833	12
21,01667	12
21,02500	13
21,03333	13
21,04167	14
21,05000	14
21,05833	15
21,06667	15
21,07500	16
21,08333	16
21,09167	16
21,10000	17
21,10833	17
21,11667	17
21,12500	17
21,13333	18
21,14167	18
21,15000	18
21,15833	18
21,16667	18
21,17500	18
21,18333	18
21,19167	18
21,20000	19
21,20833	19
21,21667	19
21,22500	19
21,23333	19
21,24167	19
21,25000	19
21,25833	19
21,26667	19
21,27500	19
21,28333	20
21,29167	20
21,30000	20
21,30833	19
21,31667	19
21,32500	19
21,33333	19
21,34167	19
21,35000	19
21,35833	19
21,36667	19
21,37500	19
21,38333	19
21,39167	19
21,40000	19
21,40833	19
21,41667	19
21,42500	18
21,43333	19
21,44167	19
21,45000	19
21,45833	19
21,46667	19
21,47500	19
21,48333	19
21,49167	19
21,50000	19
21,50833	19
21,51667	20
21,52500	20
21,53333	20
21,54167	20
21,55000	20
21,55833	19
21,56667	19
21,57500	18
21,58333	18
21,59167	19
21,60000	19
21,60833	19
21,61667	19
21,62500	19
21,63333	19
21,64167	19
21,65000	19
21,65833	19
21,66667	19
21,67500	19
21,68333	19
21,69167	19
21,70000	19
21,70833	20
21,71667	20
21,72500	20
21,73333	20
21,74167	20
21,75000	20
21,75833	20
21,76667	20
21,77500	20
21,78333	20
21,79167	20
21,80000	20
21,80833	21
21,81667	21
21,82500	20
21,83333	20
21,84167	20
21,85000	20
21,85833	20
21,86667	20
21,87500	20
21,88333	20
21,89167	19
21,90000	19
21,90833	20
21,91667	20
21,92500	20
21,93333	20
21,94167	20
21,95000	20
21,95833	20
21,96667	19
21,97500	19
21,98333	19
21,99167	19
22,00000	19
22,00833	19
22,01667	19
22,02500	19
22,03333	19
22,04167	19
22,05000	19
22,05833	19
22,06667	19
22,07500	19
22,08333	19
22,09167	20
22,10000	20
22,10833	20
22,11667	20
22,12500	20
22,13333	19
22,14167	19
22,15000	19
22,15833	19
22,16667	19
22,17500	20
22,18333	20
22,19167	20
22,20000	19
22,20833	19
22,21667	19
22,22500	19
22,23333	19
22,24167	19
22,25000	19
22,25833	19
22,26667	19
22,27500	19
22,28333	19
22,29167	19
22,30000	19
22,30833	19
22,31667	19
22,32500	19
22,33333	19
22,34167	19
22,35000	19
22,35833	19
22,36667	19
22,37500	20
22,38333	20
22,39167	20
22,40000	20
22,40833	19
22,41667	19
22,42500	19
22,43333	20
22,44167	20
22,45000	20
22,45833	20
22,46667	20
22,47500	19
22,48333	19
22,49167	19
22,50000	19
22,50833	19
22,51667	20
22,52500	20
22,53333	20
22,54167	20
22,55000	21
22,55833	21
22,56667	20
22,57500	20
22,58333	20
22,59167	20
22,60000	20
22,60833	20
22,61667	20
22,62500	20
22,63333	19
22,64167	19
22,65000	19
22,65833	19
22,66667	19
22,67500	19
22,68333	19
22,69167	19
22,70000	19
22,70833	19
22,71667	19
22,72500	19
22,73333	19
22,74167	19
22,75000	19
22,75833	19
22,76667	19
22,77500	19
22,78333	19
22,79167	19
22,80000	20
22,80833	20
22,81667	20
22,82500	20
22,83333	20
22,84167	20
22,85000	21
22,85833	21
22,86667	21
22,87500	21
22,88333	21
22,89167	21
22,90000	21
22,90833	21
22,91667	21
22,92500	21
22,93333	21
22,94167	21
22,95000	21
22,95833	21
22,96667	20
22,97500	20
22,98333	20
22,99167	20
23,00000	20
23,00833	20
23,01667	20
23,02500	21
23,03333	21
23,04167	21
23,05000	22
23,05833	22
23,06667	22
23,07500	21
23,08333	21
23,09167	21
23,10000	21
23,10833	22
23,11667	22
23,12500	22
23,13333	22
23,14167	22
23,15000	22
23,15833	22
23,16667	22
23,17500	22
23,18333	22
23,19167	22
23,20000	23
23,20833	23
23,21667	23
23,22500	24
23,23333	24
23,24167	25
23,25000	25
23,25833	25
23,26667	26
23,27500	26
23,28333	26
23,29167	26
23,30000	27
23,30833	28
23,31667	29
23,32500	30
23,33333	31
23,34167	32
23,35000	33
23,35833	34
23,36667	35
23,37500	36
23,38333	37
23,39167	39
23,40000	40
23,40833	41
23,41667	43
23,42500	44
23,43333	46
23,44167	48
23,45000	50
23,45833	52
23,46667	54
23,47500	56
23,48333	59
23,49167	62
23,50000	65
23,50833	68
23,51667	72
23,52500	76
23,53333	79
23,54167	84
23,55000	88
23,55833	94
23,56667	99
23,57500	105
23,58333	110
23,59167	116
23,60000	122
23,60833	129
23,61667	137
23,62500	145
23,63333	154
23,64167	163
23,65000	172
23,65833	182
23,66667	193
23,67500	205
23,68333	217
23,69167	230
23,70000	243
23,70833	258
23,71667	273
23,72500	289
23,73333	307
23,74167	325
23,75000	344
23,75833	364
23,76667	385
23,77500	408
23,78333	432
23,79167	457
23,80000	483
23,80833	511
23,81667	540
23,82500	571
23,83333	604
23,84167	637
23,85000	673
23,85833	710
23,86667	749
23,87500	789
23,88333	831
23,89167	875
23,90000	920
23,90833	967
23,91667	1017
23,92500	1068
23,93333	1121
23,94167	1176
23,95000	1232
23,95833	1290
23,96667	1350
23,97500	1412
23,98333	1476
23,99167	1541
24,00000	1607
24,00833	1674
24,01667	1742
24,02500	1812
24,03333	1882
24,04167	1953
24,05000	2025
24,05833	2097
24,06667	2168
24,07500	2240
24,08333	2311
24,09167	2381
24,10000	2450
24,10833	2518
24,11667	2584
24,12500	2648
24,13333	2710
24,14167	2770
24,15000	2827
24,15833	2881
24,16667	2932
24,17500	2979
24,18333	3021
24,19167	3060
24,20000	3094
24,20833	3124
24,21667	3149
24,22500	3169
24,23333	3185
24,24167	3195
24,25000	3200
24,25833	3199
24,26667	3193
24,27500	3182
24,28333	3166
24,29167	3144
24,30000	3117
24,30833	3086
24,31667	3049
24,32500	3008
24,33333	2962
24,34167	2912
24,35000	2859
24,35833	2801
24,36667	2740
24,37500	2677
24,38333	2610
24,39167	2541
24,40000	2469
24,40833	2396
24,41667	2321
24,42500	2245
24,43333	2168
24,44167	2090
24,45000	2012
24,45833	1934
24,46667	1855
24,47500	1778
24,48333	1701
24,49167	1624
24,50000	1549
24,50833	1476
24,51667	1404
24,52500	1334
24,53333	1265
24,54167	1198
24,55000	1134
24,55833	1072
24,56667	1011
24,57500	953
24,58333	898
24,59167	845
24,60000	794
24,60833	745
24,61667	698
24,62500	653
24,63333	611
24,64167	571
24,65000	533
24,65833	497
24,66667	464
24,67500	433
24,68333	403
24,69167	375
24,70000	349
24,70833	325
24,71667	302
24,72500	281
24,73333	262
24,74167	243
24,75000	226
24,75833	211
24,76667	197
24,77500	183
24,78333	171
24,79167	159
24,80000	149
24,80833	139
24,81667	129
24,82500	121
24,83333	113
24,84167	106
24,85000	100
24,85833	94
24,86667	89
24,87500	84
24,88333	79
24,89167	75
24,90000	71
24,90833	68
24,91667	64
24,92500	61
24,93333	59
24,94167	56
24,95000	54
24,95833	52
24,96667	50
24,97500	49
24,98333	47
24,99167	46
25,00000	44
25,00833	43
25,01667	41
25,02500	40
25,03333	39
25,04167	38
25,05000	38
25,05833	37
25,06667	36
25,07500	36
25,08333	35
25,09167	34
25,10000	34
25,10833	33
25,11667	32
25,12500	32
25,13333	31
25,14167	31
25,15000	30
25,15833	30
25,16667	29
25,17500	29
25,18333	29
25,19167	28
25,20000	28
25,20833	28
25,21667	28
25,22500	27
25,23333	27
25,24167	27
25,25000	27
25,25833	27
25,26667	27
25,27500	27
25,28333	27
25,29167	27
25,30000	27
25,30833	27
25,31667	26
25,32500	26
25,33333	26
25,34167	25
25,35000	25
25,35833	25
25,36667	25
25,37500	25
25,38333	25
25,39167	25
25,40000	25
25,40833	25
25,41667	25
25,42500	25
25,43333	25
25,44167	24
25,45000	24
25,45833	24
25,46667	24
25,47500	24
25,48333	25
25,49167	25
25,50000	25
25,50833	24
25,51667	24
25,52500	24
25,53333	24
25,54167	24
25,55000	24
25,55833	24
25,56667	25
25,57500	25
25,58333	25
25,59167	25
25,60000	25
25,60833	25
25,61667	24
25,62500	24
25,63333	24
25,64167	24
25,65000	24
25,65833	24
25,66667	24
25,67500	24
25,68333	25
25,69167	25
25,70000	25
25,70833	25
25,71667	24
25,72500	24
25,73333	24
25,74167	24
25,75000	24
25,75833	24
25,76667	24
25,77500	24
25,78333	25
25,79167	25
25,80000	25
25,80833	25
25,81667	25
25,82500	24
25,83333	24
25,84167	24
25,85000	24
25,85833	24
25,86667	24
25,87500	24
25,88333	24
25,89167	24
25,90000	24
25,90833	25
25,91667	24
25,92500	24
25,93333	24
25,94167	23
25,95000	23
25,95833	23
25,96667	23
25,97500	23
25,98333	23
25,99167	23
26,00000	23
26,00833	23
26,01667	23
26,02500	23
26,03333	23
26,04167	23
26,05000	23
26,05833	23
26,06667	23
26,07500	23
26,08333	23
26,09167	23
26,10000	22
26,10833	22
26,11667	22
26,12500	22
26,13333	23
26,14167	23
26,15000	23
26,15833	23
26,16667	24
26,17500	24
26,18333	24
26,19167	23
26,20000	23
26,20833	23
26,21667	23
26,22500	23
26,23333	23
26,24167	23
26,25000	23
26,25833	23
26,26667	23
26,27500	23
26,28333	23
26,29167	23
26,30000	23
26,30833	23
26,31667	23
26,32500	23
26,33333	24
26,34167	24
26,35000	24
26,35833	24
26,36667	24
26,37500	24
26,38333	24
26,39167	24
26,40000	24
26,40833	24
26,41667	24
26,42500	24
26,43333	24
26,44167	24
26,45000	24
26,45833	25
26,46667	25
26,47500	25
26,48333	25
26,49167	25
26,50000	25
26,50833	25
26,51667	25
26,52500	25
26,53333	25
26,54167	25
26,55000	25
26,55833	25
26,56667	25
26,57500	24
26,58333	24
26,59167	24
26,60000	23
26,60833	23
26,61667	24
26,62500	24
26,63333	24
26,64167	24
26,65000	24
26,65833	24
26,66667	24
26,67500	24
26,68333	24
26,69167	24
26,70000	24
26,70833	24
26,71667	24
26,72500	24
26,73333	24
26,74167	24
26,75000	24
26,75833	24
26,76667	24
26,77500	24
26,78333	24
26,79167	24
26,80000	24
26,80833	24
26,81667	24
26,82500	24
26,83333	24
26,84167	24
26,85000	24
26,85833	23
26,86667	23
26,87500	23
26,88333	23
26,89167	23
26,90000	23
26,90833	24
26,91667	24
26,92500	24
26,93333	24
26,94167	24
26,95000	24
26,95833	24
26,96667	24
26,97500	24
26,98333	24
26,99167	24
27,00000	24
27,00833	24
27,01667	24
27,02500	24
27,03333	24
27,04167	24
27,05000	24
27,05833	23
27,06667	23
27,07500	23
27,08333	24
27,09167	24
27,10000	24
27,10833	25
27,11667	24
27,12500	24
27,13333	24
27,14167	24
27,15000	24
27,15833	23
27,16667	23
27,17500	23
27,18333	24
27,19167	24
27,20000	24
27,20833	24
27,21667	23
27,22500	23
27,23333	23
27,24167	23
27,25000	23
27,25833	23
27,26667	23
27,27500	23
27,28333	23
27,29167	23
27,30000	23
27,30833	23
27,31667	23
27,32500	24
27,33333	24
27,34167	24
27,35000	24
27,35833	24
27,36667	24
27,37500	24
27,38333	23
27,39167	23
27,40000	23
27,40833	23
27,41667	23
27,42500	23
27,43333	23
27,44167	23
27,45000	23
27,45833	23
27,46667	24
27,47500	24
27,48333	23
27,49167	23
27,50000	24
27,50833	24
27,51667	24
27,52500	24
27,53333	25
27,54167	25
27,55000	25
27,55833	25
27,56667	25
27,57500	25
27,58333	26
27,59167	25
27,60000	26
27,60833	26
27,61667	26
27,62500	25
27,63333	25
27,64167	25
27,65000	25
27,65833	25
27,66667	26
27,67500	26
27,68333	26
27,69167	26
27,70000	26
27,70833	26
27,71667	26
27,72500	26
27,73333	25
27,74167	25
27,75000	25
27,75833	26
27,76667	26
27,77500	26
27,78333	26
27,79167	26
27,80000	26
27,80833	26
27,81667	26
27,82500	26
27,83333	26
27,84167	26
27,85000	27
27,85833	27
27,86667	27
27,87500	27
27,88333	26
27,89167	26
27,90000	27
27,90833	27
27,91667	27
27,92500	27
27,93333	27
27,94167	27
27,95000	27
27,95833	27
27,96667	27
27,97500	27
27,98333	27
27,99167	27
28,00000	28
28,00833	28
28,01667	28
28,02500	28
28,03333	28
28,04167	28
28,05000	28
28,05833	27
28,06667	27
28,07500	27
28,08333	27
28,09167	27
28,10000	26
28,10833	27
28,11667	27
28,12500	27
28,13333	27
28,14167	27
28,15000	27
28,15833	27
28,16667	27
28,17500	27
28,18333	28
28,19167	28
28,20000	27
28,20833	27
28,21667	27
28,22500	27
28,23333	27
28,24167	28
28,25000	28
28,25833	28
28,26667	27
28,27500	27
28,28333	27
28,29167	27
28,30000	27
28,30833	28
28,31667	28
28,32500	28
28,33333	28
28,34167	28
28,35000	28
28,35833	28
28,36667	28
28,37500	29
28,38333	29
28,39167	28
28,40000	28
28,40833	28
28,41667	28
28,42500	28
28,43333	28
28,44167	28
28,45000	28
28,45833	28
28,46667	28
28,47500	28
28,48333	27
28,49167	27
28,50000	27
28,50833	27
28,51667	27
28,52500	27
28,53333	27
28,54167	27
28,55000	27
28,55833	27
28,56667	28
28,57500	28
28,58333	28
28,59167	28
28,60000	28
28,60833	28
28,61667	28
28,62500	27
28,63333	27
28,64167	28
28,65000	28
28,65833	27
28,66667	27
28,67500	27
28,68333	27
28,69167	27
28,70000	27
28,70833	27
28,71667	27
28,72500	27
28,73333	28
28,74167	28
28,75000	28
28,75833	28
28,76667	28
28,77500	28
28,78333	28
28,79167	28
28,80000	28
28,80833	27
28,81667	28
28,82500	28
28,83333	27
28,84167	27
28,85000	27
28,85833	27
28,86667	28
28,87500	28
28,88333	28
28,89167	28
28,90000	28
28,90833	28
28,91667	28
28,92500	28
28,93333	27
28,94167	27
28,95000	27
28,95833	27
28,96667	28
28,97500	28
28,98333	28
28,99167	28
29,00000	28
29,00833	28
29,01667	28
29,02500	28
29,03333	28
29,04167	28
29,05000	28
29,05833	29
29,06667	29
29,07500	29
29,08333	29
29,09167	28
29,10000	28
29,10833	28
29,11667	28
29,12500	28
29,13333	29
29,14167	28
29,15000	28
29,15833	29
29,16667	28
29,17500	28
29,18333	28
29,19167	28
29,20000	28
29,20833	28
29,21667	28
29,22500	28
29,23333	28
29,24167	28
29,25000	28
29,25833	28
29,26667	28
29,27500	28
29,28333	28
29,29167	28
29,30000	28
29,30833	28
29,31667	28
29,32500	29
29,33333	29
29,34167	29
29,35000	29
29,35833	29
29,36667	29
29,37500	30
29,38333	30
29,39167	29
29,40000	29
29,40833	29
29,41667	28
29,42500	28
29,43333	28
29,44167	27
29,45000	27
29,45833	27
29,46667	27
29,47500	28
29,48333	28
29,49167	28
29,50000	28
29,50833	28
29,51667	28
29,52500	29
29,53333	29
29,54167	29
29,55000	29
29,55833	29
29,56667	29
29,57500	28
29,58333	28
29,59167	29
29,60000	29
29,60833	29
29,61667	28
29,62500	28
29,63333	28
29,64167	28
29,65000	28
29,65833	28
29,66667	28
29,67500	29
29,68333	29
29,69167	29
29,70000	29
29,70833	29
29,71667	29
29,72500	29
29,73333	29
29,74167	29
29,75000	29
29,75833	29
29,76667	29
29,77500	29
29,78333	28
29,79167	28
29,80000	28
29,80833	28
29,81667	28
29,82500	28
29,83333	28
29,84167	29
29,85000	29
29,85833	29
29,86667	29
29,87500	29
29,88333	29
29,89167	29
29,90000	29
29,90833	28
29,91667	28
29,92500	28
29,93333	28
29,94167	29
29,95000	29
29,95833	29
29,96667	29
29,97500	29
29,98333	29
29,99167	29
30,00000	28

