R.Time (min)	Intensity
0,00000	2
0,00833	2
0,01667	0
0,02500	0
0,03333	0
0,04167	-0
0,05000	-1
0,05833	-2
0,06667	-2
0,07500	-2
0,08333	-2
0,09167	-3
0,10000	-2
0,10833	-2
0,11667	-2
0,12500	-1
0,13333	-1
0,14167	-1
0,15000	-1
0,15833	-1
0,16667	-1
0,17500	-1
0,18333	-1
0,19167	-1
0,20000	-1
0,20833	-1
0,21667	-1
0,22500	-2
0,23333	-2
0,24167	-2
0,25000	-2
0,25833	-2
0,26667	-2
0,27500	-1
0,28333	-1
0,29167	-1
0,30000	-1
0,30833	-1
0,31667	-0
0,32500	0
0,33333	0
0,34167	1
0,35000	1
0,35833	1
0,36667	1
0,37500	2
0,38333	2
0,39167	1
0,40000	1
0,40833	-0
0,41667	-1
0,42500	-1
0,43333	-2
0,44167	-2
0,45000	-2
0,45833	-2
0,46667	-2
0,47500	-2
0,48333	-2
0,49167	-2
0,50000	-2
0,50833	-2
0,51667	-2
0,52500	-2
0,53333	-2
0,54167	-2
0,55000	-2
0,55833	-2
0,56667	-2
0,57500	-2
0,58333	-2
0,59167	-2
0,60000	-2
0,60833	-2
0,61667	-1
0,62500	-1
0,63333	-1
0,64167	-1
0,65000	-1
0,65833	-1
0,66667	-1
0,67500	-1
0,68333	-1
0,69167	-1
0,70000	-1
0,70833	-1
0,71667	-1
0,72500	-1
0,73333	-1
0,74167	-1
0,75000	-1
0,75833	-1
0,76667	-1
0,77500	-1
0,78333	-1
0,79167	-1
0,80000	-1
0,80833	-1
0,81667	-1
0,82500	-1
0,83333	-1
0,84167	-1
0,85000	-1
0,85833	-0
0,86667	-0
0,87500	-0
0,88333	-0
0,89167	-1
0,90000	-1
0,90833	-0
0,91667	-0
0,92500	-0
0,93333	-0
0,94167	0
0,95000	0
0,95833	0
0,96667	0
0,97500	0
0,98333	0
0,99167	0
1,00000	0
1,00833	-0
1,01667	-0
1,02500	-0
1,03333	-0
1,04167	-0
1,05000	-1
1,05833	-1
1,06667	-1
1,07500	-0
1,08333	-0
1,09167	-0
1,10000	-0
1,10833	-1
1,11667	-1
1,12500	-1
1,13333	-1
1,14167	-0
1,15000	-0
1,15833	-0
1,16667	-0
1,17500	-1
1,18333	-1
1,19167	-0
1,20000	-0
1,20833	-0
1,21667	-0
1,22500	-0
1,23333	-0
1,24167	-0
1,25000	-0
1,25833	-0
1,26667	-0
1,27500	-0
1,28333	-1
1,29167	-1
1,30000	-1
1,30833	-0
1,31667	-0
1,32500	-0
1,33333	0
1,34167	0
1,35000	0
1,35833	1
1,36667	1
1,37500	1
1,38333	0
1,39167	0
1,40000	0
1,40833	0
1,41667	0
1,42500	0
1,43333	-0
1,44167	-0
1,45000	-1
1,45833	-1
1,46667	-1
1,47500	-1
1,48333	-1
1,49167	-1
1,50000	-1
1,50833	-1
1,51667	-0
1,52500	-0
1,53333	0
1,54167	0
1,55000	0
1,55833	0
1,56667	0
1,57500	0
1,58333	0
1,59167	-0
1,60000	0
1,60833	0
1,61667	-0
1,62500	-0
1,63333	-0
1,64167	-0
1,65000	-0
1,65833	-0
1,66667	-0
1,67500	0
1,68333	0
1,69167	0
1,70000	-0
1,70833	-0
1,71667	-0
1,72500	-0
1,73333	-0
1,74167	-0
1,75000	-0
1,75833	-1
1,76667	-0
1,77500	-0
1,78333	-0
1,79167	-0
1,80000	-0
1,80833	0
1,81667	0
1,82500	1
1,83333	1
1,84167	1
1,85000	0
1,85833	0
1,86667	0
1,87500	0
1,88333	0
1,89167	0
1,90000	1
1,90833	1
1,91667	0
1,92500	1
1,93333	1
1,94167	1
1,95000	1
1,95833	1
1,96667	1
1,97500	1
1,98333	1
1,99167	1
2,00000	1
2,00833	1
2,01667	1
2,02500	1
2,03333	1
2,04167	1
2,05000	1
2,05833	1
2,06667	1
2,07500	1
2,08333	1
2,09167	1
2,10000	1
2,10833	1
2,11667	1
2,12500	1
2,13333	1
2,14167	1
2,15000	1
2,15833	1
2,16667	1
2,17500	1
2,18333	2
2,19167	2
2,20000	2
2,20833	2
2,21667	2
2,22500	2
2,23333	2
2,24167	2
2,25000	2
2,25833	2
2,26667	2
2,27500	2
2,28333	1
2,29167	1
2,30000	1
2,30833	1
2,31667	1
2,32500	1
2,33333	1
2,34167	2
2,35000	2
2,35833	2
2,36667	2
2,37500	2
2,38333	2
2,39167	2
2,40000	2
2,40833	2
2,41667	1
2,42500	1
2,43333	1
2,44167	1
2,45000	1
2,45833	1
2,46667	1
2,47500	1
2,48333	1
2,49167	1
2,50000	1
2,50833	1
2,51667	1
2,52500	0
2,53333	0
2,54167	0
2,55000	0
2,55833	0
2,56667	0
2,57500	0
2,58333	0
2,59167	0
2,60000	1
2,60833	1
2,61667	0
2,62500	0
2,63333	0
2,64167	-0
2,65000	-0
2,65833	-0
2,66667	-0
2,67500	-0
2,68333	-0
2,69167	0
2,70000	0
2,70833	0
2,71667	-0
2,72500	-0
2,73333	-1
2,74167	-1
2,75000	-1
2,75833	-1
2,76667	-0
2,77500	-0
2,78333	-0
2,79167	0
2,80000	0
2,80833	0
2,81667	0
2,82500	-0
2,83333	-0
2,84167	-0
2,85000	-0
2,85833	0
2,86667	0
2,87500	0
2,88333	0
2,89167	0
2,90000	0
2,90833	1
2,91667	1
2,92500	1
2,93333	1
2,94167	1
2,95000	1
2,95833	1
2,96667	1
2,97500	1
2,98333	1
2,99167	1
3,00000	0
3,00833	0
3,01667	0
3,02500	0
3,03333	-0
3,04167	-0
3,05000	-0
3,05833	0
3,06667	1
3,07500	1
3,08333	2
3,09167	2
3,10000	1
3,10833	1
3,11667	1
3,12500	1
3,13333	0
3,14167	0
3,15000	-0
3,15833	-0
3,16667	0
3,17500	1
3,18333	1
3,19167	1
3,20000	1
3,20833	1
3,21667	1
3,22500	1
3,23333	1
3,24167	1
3,25000	1
3,25833	1
3,26667	1
3,27500	1
3,28333	1
3,29167	1
3,30000	1
3,30833	1
3,31667	1
3,32500	1
3,33333	1
3,34167	1
3,35000	1
3,35833	2
3,36667	2
3,37500	2
3,38333	2
3,39167	2
3,40000	2
3,40833	2
3,41667	2
3,42500	2
3,43333	1
3,44167	1
3,45000	1
3,45833	1
3,46667	1
3,47500	2
3,48333	2
3,49167	2
3,50000	2
3,50833	1
3,51667	1
3,52500	1
3,53333	1
3,54167	1
3,55000	2
3,55833	2
3,56667	2
3,57500	2
3,58333	2
3,59167	2
3,60000	2
3,60833	2
3,61667	2
3,62500	2
3,63333	2
3,64167	2
3,65000	2
3,65833	2
3,66667	2
3,67500	2
3,68333	2
3,69167	2
3,70000	2
3,70833	2
3,71667	2
3,72500	2
3,73333	2
3,74167	2
3,75000	2
3,75833	2
3,76667	3
3,77500	3
3,78333	3
3,79167	3
3,80000	3
3,80833	3
3,81667	3
3,82500	3
3,83333	3
3,84167	3
3,85000	3
3,85833	3
3,86667	3
3,87500	3
3,88333	3
3,89167	3
3,90000	3
3,90833	3
3,91667	3
3,92500	3
3,93333	3
3,94167	3
3,95000	3
3,95833	3
3,96667	3
3,97500	3
3,98333	3
3,99167	2
4,00000	2
4,00833	3
4,01667	3
4,02500	2
4,03333	2
4,04167	3
4,05000	3
4,05833	3
4,06667	3
4,07500	3
4,08333	3
4,09167	3
4,10000	3
4,10833	2
4,11667	2
4,12500	2
4,13333	2
4,14167	3
4,15000	3
4,15833	3
4,16667	3
4,17500	3
4,18333	3
4,19167	3
4,20000	3
4,20833	3
4,21667	3
4,22500	3
4,23333	3
4,24167	3
4,25000	3
4,25833	3
4,26667	3
4,27500	3
4,28333	3
4,29167	3
4,30000	3
4,30833	3
4,31667	3
4,32500	3
4,33333	3
4,34167	3
4,35000	3
4,35833	3
4,36667	3
4,37500	3
4,38333	3
4,39167	3
4,40000	3
4,40833	3
4,41667	3
4,42500	3
4,43333	3
4,44167	3
4,45000	3
4,45833	3
4,46667	4
4,47500	4
4,48333	4
4,49167	4
4,50000	4
4,50833	4
4,51667	4
4,52500	4
4,53333	4
4,54167	4
4,55000	4
4,55833	4
4,56667	4
4,57500	4
4,58333	4
4,59167	4
4,60000	3
4,60833	3
4,61667	3
4,62500	3
4,63333	3
4,64167	3
4,65000	3
4,65833	3
4,66667	4
4,67500	4
4,68333	4
4,69167	4
4,70000	4
4,70833	4
4,71667	4
4,72500	4
4,73333	4
4,74167	4
4,75000	4
4,75833	5
4,76667	5
4,77500	5
4,78333	5
4,79167	4
4,80000	4
4,80833	4
4,81667	4
4,82500	4
4,83333	4
4,84167	5
4,85000	5
4,85833	5
4,86667	5
4,87500	5
4,88333	5
4,89167	5
4,90000	5
4,90833	5
4,91667	5
4,92500	5
4,93333	5
4,94167	5
4,95000	5
4,95833	5
4,96667	5
4,97500	5
4,98333	5
4,99167	5
5,00000	5
5,00833	5
5,01667	4
5,02500	4
5,03333	4
5,04167	4
5,05000	4
5,05833	4
5,06667	4
5,07500	4
5,08333	4
5,09167	4
5,10000	4
5,10833	4
5,11667	4
5,12500	4
5,13333	3
5,14167	3
5,15000	3
5,15833	3
5,16667	3
5,17500	4
5,18333	4
5,19167	4
5,20000	4
5,20833	5
5,21667	5
5,22500	4
5,23333	5
5,24167	4
5,25000	4
5,25833	4
5,26667	4
5,27500	4
5,28333	4
5,29167	5
5,30000	5
5,30833	5
5,31667	5
5,32500	5
5,33333	5
5,34167	4
5,35000	4
5,35833	4
5,36667	4
5,37500	4
5,38333	5
5,39167	5
5,40000	5
5,40833	5
5,41667	4
5,42500	4
5,43333	4
5,44167	4
5,45000	4
5,45833	5
5,46667	5
5,47500	5
5,48333	5
5,49167	5
5,50000	4
5,50833	4
5,51667	4
5,52500	4
5,53333	4
5,54167	4
5,55000	4
5,55833	4
5,56667	4
5,57500	4
5,58333	4
5,59167	5
5,60000	5
5,60833	5
5,61667	5
5,62500	5
5,63333	5
5,64167	4
5,65000	4
5,65833	4
5,66667	4
5,67500	4
5,68333	4
5,69167	5
5,70000	5
5,70833	5
5,71667	5
5,72500	4
5,73333	4
5,74167	4
5,75000	4
5,75833	4
5,76667	4
5,77500	4
5,78333	3
5,79167	3
5,80000	3
5,80833	3
5,81667	3
5,82500	3
5,83333	3
5,84167	3
5,85000	3
5,85833	3
5,86667	3
5,87500	3
5,88333	3
5,89167	3
5,90000	3
5,90833	4
5,91667	4
5,92500	4
5,93333	4
5,94167	3
5,95000	3
5,95833	3
5,96667	4
5,97500	4
5,98333	4
5,99167	4
6,00000	4
6,00833	3
6,01667	3
6,02500	3
6,03333	3
6,04167	2
6,05000	2
6,05833	2
6,06667	2
6,07500	2
6,08333	2
6,09167	2
6,10000	2
6,10833	2
6,11667	1
6,12500	1
6,13333	-0
6,14167	-2
6,15000	-4
6,15833	-7
6,16667	-11
6,17500	-17
6,18333	-27
6,19167	-41
6,20000	-63
6,20833	-95
6,21667	-142
6,22500	-210
6,23333	-307
6,24167	-442
6,25000	-628
6,25833	-876
6,26667	-1204
6,27500	-1624
6,28333	-2151
6,29167	-2792
6,30000	-3551
6,30833	-4422
6,31667	-5393
6,32500	-6438
6,33333	-7526
6,34167	-8620
6,35000	-9676
6,35833	-10652
6,36667	-11510
6,37500	-12216
6,38333	-12745
6,39167	-13083
6,40000	-13222
6,40833	-13168
6,41667	-12931
6,42500	-12531
6,43333	-11991
6,44167	-11337
6,45000	-10597
6,45833	-9798
6,46667	-8967
6,47500	-8126
6,48333	-7297
6,49167	-6495
6,50000	-5734
6,50833	-5023
6,51667	-4368
6,52500	-3772
6,53333	-3238
6,54167	-2762
6,55000	-2344
6,55833	-1980
6,56667	-1665
6,57500	-1396
6,58333	-1166
6,59167	-972
6,60000	-808
6,60833	-671
6,61667	-557
6,62500	-462
6,63333	-384
6,64167	-319
6,65000	-265
6,65833	-221
6,66667	-185
6,67500	-155
6,68333	-131
6,69167	-110
6,70000	-94
6,70833	-80
6,71667	-69
6,72500	-59
6,73333	-51
6,74167	-45
6,75000	-39
6,75833	-34
6,76667	-30
6,77500	-27
6,78333	-24
6,79167	-22
6,80000	-20
6,80833	-18
6,81667	-16
6,82500	-15
6,83333	-14
6,84167	-13
6,85000	-11
6,85833	-10
6,86667	-9
6,87500	-9
6,88333	-8
6,89167	-7
6,90000	-6
6,90833	-6
6,91667	-5
6,92500	-5
6,93333	-5
6,94167	-5
6,95000	-4
6,95833	-4
6,96667	-3
6,97500	-3
6,98333	-3
6,99167	-2
7,00000	-2
7,00833	-3
7,01667	-2
7,02500	-2
7,03333	-2
7,04167	-2
7,05000	-2
7,05833	-1
7,06667	-0
7,07500	-0
7,08333	-0
7,09167	-0
7,10000	-0
7,10833	0
7,11667	0
7,12500	1
7,13333	1
7,14167	0
7,15000	0
7,15833	0
7,16667	0
7,17500	0
7,18333	0
7,19167	0
7,20000	0
7,20833	0
7,21667	1
7,22500	1
7,23333	1
7,24167	0
7,25000	0
7,25833	-0
7,26667	-0
7,27500	-0
7,28333	-0
7,29167	0
7,30000	0
7,30833	1
7,31667	1
7,32500	1
7,33333	1
7,34167	1
7,35000	1
7,35833	2
7,36667	2
7,37500	2
7,38333	2
7,39167	2
7,40000	2
7,40833	2
7,41667	2
7,42500	2
7,43333	2
7,44167	2
7,45000	2
7,45833	2
7,46667	2
7,47500	2
7,48333	3
7,49167	2
7,50000	2
7,50833	2
7,51667	2
7,52500	2
7,53333	2
7,54167	2
7,55000	2
7,55833	2
7,56667	2
7,57500	2
7,58333	2
7,59167	2
7,60000	2
7,60833	3
7,61667	3
7,62500	3
7,63333	3
7,64167	2
7,65000	2
7,65833	2
7,66667	3
7,67500	3
7,68333	3
7,69167	3
7,70000	3
7,70833	3
7,71667	3
7,72500	3
7,73333	3
7,74167	3
7,75000	3
7,75833	3
7,76667	3
7,77500	3
7,78333	3
7,79167	3
7,80000	4
7,80833	4
7,81667	4
7,82500	4
7,83333	4
7,84167	4
7,85000	4
7,85833	4
7,86667	4
7,87500	4
7,88333	4
7,89167	4
7,90000	4
7,90833	4
7,91667	4
7,92500	4
7,93333	4
7,94167	4
7,95000	4
7,95833	3
7,96667	4
7,97500	4
7,98333	4
7,99167	4
8,00000	3
8,00833	3
8,01667	3
8,02500	3
8,03333	3
8,04167	3
8,05000	3
8,05833	3
8,06667	4
8,07500	4
8,08333	4
8,09167	4
8,10000	4
8,10833	4
8,11667	4
8,12500	4
8,13333	4
8,14167	4
8,15000	4
8,15833	4
8,16667	4
8,17500	4
8,18333	4
8,19167	4
8,20000	4
8,20833	5
8,21667	4
8,22500	4
8,23333	4
8,24167	5
8,25000	5
8,25833	5
8,26667	5
8,27500	5
8,28333	5
8,29167	6
8,30000	6
8,30833	6
8,31667	7
8,32500	7
8,33333	6
8,34167	6
8,35000	6
8,35833	5
8,36667	5
8,37500	5
8,38333	5
8,39167	4
8,40000	5
8,40833	5
8,41667	5
8,42500	5
8,43333	5
8,44167	5
8,45000	5
8,45833	5
8,46667	5
8,47500	5
8,48333	5
8,49167	6
8,50000	6
8,50833	5
8,51667	5
8,52500	6
8,53333	6
8,54167	6
8,55000	6
8,55833	5
8,56667	5
8,57500	6
8,58333	6
8,59167	6
8,60000	6
8,60833	6
8,61667	5
8,62500	6
8,63333	6
8,64167	6
8,65000	6
8,65833	6
8,66667	6
8,67500	6
8,68333	6
8,69167	5
8,70000	5
8,70833	5
8,71667	5
8,72500	5
8,73333	5
8,74167	6
8,75000	6
8,75833	6
8,76667	6
8,77500	6
8,78333	6
8,79167	6
8,80000	6
8,80833	6
8,81667	6
8,82500	6
8,83333	7
8,84167	7
8,85000	7
8,85833	7
8,86667	7
8,87500	7
8,88333	7
8,89167	7
8,90000	7
8,90833	6
8,91667	6
8,92500	6
8,93333	6
8,94167	6
8,95000	6
8,95833	6
8,96667	6
8,97500	6
8,98333	6
8,99167	6
9,00000	6
9,00833	6
9,01667	6
9,02500	7
9,03333	7
9,04167	7
9,05000	7
9,05833	7
9,06667	8
9,07500	8
9,08333	8
9,09167	8
9,10000	8
9,10833	8
9,11667	8
9,12500	8
9,13333	9
9,14167	9
9,15000	9
9,15833	9
9,16667	9
9,17500	9
9,18333	9
9,19167	9
9,20000	9
9,20833	9
9,21667	9
9,22500	9
9,23333	8
9,24167	8
9,25000	8
9,25833	8
9,26667	8
9,27500	8
9,28333	8
9,29167	8
9,30000	8
9,30833	8
9,31667	8
9,32500	8
9,33333	8
9,34167	8
9,35000	8
9,35833	8
9,36667	8
9,37500	8
9,38333	7
9,39167	8
9,40000	7
9,40833	7
9,41667	7
9,42500	7
9,43333	7
9,44167	7
9,45000	7
9,45833	7
9,46667	7
9,47500	7
9,48333	7
9,49167	7
9,50000	7
9,50833	6
9,51667	6
9,52500	6
9,53333	7
9,54167	7
9,55000	7
9,55833	7
9,56667	7
9,57500	7
9,58333	8
9,59167	7
9,60000	7
9,60833	8
9,61667	8
9,62500	7
9,63333	7
9,64167	7
9,65000	7
9,65833	7
9,66667	7
9,67500	7
9,68333	7
9,69167	7
9,70000	7
9,70833	7
9,71667	7
9,72500	7
9,73333	7
9,74167	7
9,75000	6
9,75833	6
9,76667	6
9,77500	6
9,78333	6
9,79167	6
9,80000	6
9,80833	6
9,81667	6
9,82500	6
9,83333	6
9,84167	6
9,85000	6
9,85833	7
9,86667	7
9,87500	7
9,88333	7
9,89167	7
9,90000	7
9,90833	7
9,91667	7
9,92500	7
9,93333	6
9,94167	6
9,95000	6
9,95833	6
9,96667	6
9,97500	6
9,98333	6
9,99167	6
10,00000	6
10,00833	6
10,01667	6
10,02500	6
10,03333	6
10,04167	6
10,05000	6
10,05833	7
10,06667	7
10,07500	7
10,08333	7
10,09167	7
10,10000	7
10,10833	6
10,11667	6
10,12500	6
10,13333	6
10,14167	6
10,15000	7
10,15833	7
10,16667	7
10,17500	7
10,18333	7
10,19167	7
10,20000	7
10,20833	7
10,21667	7
10,22500	7
10,23333	7
10,24167	7
10,25000	7
10,25833	7
10,26667	7
10,27500	7
10,28333	7
10,29167	7
10,30000	7
10,30833	6
10,31667	6
10,32500	6
10,33333	6
10,34167	6
10,35000	6
10,35833	6
10,36667	6
10,37500	6
10,38333	6
10,39167	6
10,40000	6
10,40833	6
10,41667	6
10,42500	6
10,43333	6
10,44167	6
10,45000	6
10,45833	6
10,46667	6
10,47500	6
10,48333	6
10,49167	6
10,50000	6
10,50833	6
10,51667	5
10,52500	5
10,53333	5
10,54167	6
10,55000	6
10,55833	6
10,56667	6
10,57500	6
10,58333	6
10,59167	7
10,60000	6
10,60833	6
10,61667	7
10,62500	7
10,63333	7
10,64167	7
10,65000	8
10,65833	8
10,66667	8
10,67500	8
10,68333	7
10,69167	7
10,70000	7
10,70833	7
10,71667	7
10,72500	7
10,73333	7
10,74167	7
10,75000	7
10,75833	7
10,76667	7
10,77500	8
10,78333	8
10,79167	8
10,80000	8
10,80833	7
10,81667	7
10,82500	7
10,83333	7
10,84167	7
10,85000	7
10,85833	7
10,86667	7
10,87500	8
10,88333	8
10,89167	8
10,90000	8
10,90833	8
10,91667	8
10,92500	8
10,93333	8
10,94167	7
10,95000	8
10,95833	8
10,96667	8
10,97500	8
10,98333	8
10,99167	7
11,00000	7
11,00833	7
11,01667	7
11,02500	8
11,03333	8
11,04167	8
11,05000	8
11,05833	7
11,06667	7
11,07500	7
11,08333	7
11,09167	7
11,10000	7
11,10833	7
11,11667	8
11,12500	8
11,13333	8
11,14167	8
11,15000	8
11,15833	8
11,16667	8
11,17500	9
11,18333	9
11,19167	9
11,20000	8
11,20833	8
11,21667	8
11,22500	8
11,23333	8
11,24167	8
11,25000	8
11,25833	8
11,26667	7
11,27500	7
11,28333	8
11,29167	8
11,30000	8
11,30833	9
11,31667	9
11,32500	9
11,33333	9
11,34167	9
11,35000	9
11,35833	9
11,36667	9
11,37500	9
11,38333	10
11,39167	10
11,40000	10
11,40833	10
11,41667	10
11,42500	10
11,43333	10
11,44167	10
11,45000	10
11,45833	10
11,46667	10
11,47500	10
11,48333	9
11,49167	9
11,50000	8
11,50833	8
11,51667	8
11,52500	8
11,53333	9
11,54167	9
11,55000	9
11,55833	9
11,56667	10
11,57500	9
11,58333	9
11,59167	9
11,60000	9
11,60833	9
11,61667	8
11,62500	8
11,63333	7
11,64167	7
11,65000	8
11,65833	8
11,66667	8
11,67500	8
11,68333	8
11,69167	9
11,70000	9
11,70833	9
11,71667	9
11,72500	9
11,73333	9
11,74167	9
11,75000	9
11,75833	9
11,76667	8
11,77500	8
11,78333	8
11,79167	8
11,80000	8
11,80833	8
11,81667	8
11,82500	8
11,83333	8
11,84167	8
11,85000	8
11,85833	8
11,86667	9
11,87500	9
11,88333	9
11,89167	9
11,90000	9
11,90833	9
11,91667	9
11,92500	9
11,93333	9
11,94167	9
11,95000	9
11,95833	9
11,96667	9
11,97500	9
11,98333	9
11,99167	9
12,00000	9
12,00833	9
12,01667	9
12,02500	9
12,03333	9
12,04167	9
12,05000	9
12,05833	9
12,06667	9
12,07500	9
12,08333	9
12,09167	9
12,10000	9
12,10833	9
12,11667	9
12,12500	9
12,13333	10
12,14167	9
12,15000	9
12,15833	9
12,16667	9
12,17500	9
12,18333	9
12,19167	9
12,20000	9
12,20833	9
12,21667	9
12,22500	9
12,23333	9
12,24167	9
12,25000	9
12,25833	9
12,26667	9
12,27500	9
12,28333	9
12,29167	9
12,30000	9
12,30833	9
12,31667	9
12,32500	10
12,33333	10
12,34167	10
12,35000	10
12,35833	10
12,36667	9
12,37500	9
12,38333	9
12,39167	9
12,40000	10
12,40833	10
12,41667	9
12,42500	9
12,43333	9
12,44167	9
12,45000	9
12,45833	9
12,46667	9
12,47500	9
12,48333	10
12,49167	10
12,50000	9
12,50833	9
12,51667	10
12,52500	10
12,53333	10
12,54167	10
12,55000	10
12,55833	9
12,56667	9
12,57500	9
12,58333	9
12,59167	9
12,60000	8
12,60833	8
12,61667	8
12,62500	7
12,63333	7
12,64167	8
12,65000	8
12,65833	8
12,66667	9
12,67500	9
12,68333	9
12,69167	9
12,70000	9
12,70833	10
12,71667	10
12,72500	10
12,73333	9
12,74167	9
12,75000	9
12,75833	9
12,76667	9
12,77500	10
12,78333	10
12,79167	10
12,80000	10
12,80833	9
12,81667	10
12,82500	10
12,83333	10
12,84167	10
12,85000	10
12,85833	10
12,86667	10
12,87500	10
12,88333	10
12,89167	10
12,90000	10
12,90833	10
12,91667	10
12,92500	10
12,93333	10
12,94167	10
12,95000	9
12,95833	9
12,96667	9
12,97500	9
12,98333	9
12,99167	9
13,00000	9
13,00833	9
13,01667	10
13,02500	10
13,03333	10
13,04167	10
13,05000	9
13,05833	9
13,06667	9
13,07500	9
13,08333	9
13,09167	9
13,10000	9
13,10833	9
13,11667	9
13,12500	9
13,13333	9
13,14167	9
13,15000	9
13,15833	9
13,16667	8
13,17500	8
13,18333	8
13,19167	8
13,20000	8
13,20833	8
13,21667	7
13,22500	7
13,23333	8
13,24167	8
13,25000	8
13,25833	8
13,26667	8
13,27500	8
13,28333	8
13,29167	8
13,30000	8
13,30833	8
13,31667	7
13,32500	7
13,33333	8
13,34167	8
13,35000	8
13,35833	9
13,36667	9
13,37500	9
13,38333	9
13,39167	9
13,40000	9
13,40833	9
13,41667	8
13,42500	8
13,43333	8
13,44167	8
13,45000	8
13,45833	9
13,46667	9
13,47500	9
13,48333	8
13,49167	8
13,50000	8
13,50833	8
13,51667	8
13,52500	8
13,53333	8
13,54167	8
13,55000	8
13,55833	9
13,56667	9
13,57500	9
13,58333	8
13,59167	8
13,60000	8
13,60833	8
13,61667	8
13,62500	8
13,63333	8
13,64167	9
13,65000	9
13,65833	9
13,66667	9
13,67500	9
13,68333	9
13,69167	9
13,70000	9
13,70833	9
13,71667	9
13,72500	9
13,73333	9
13,74167	9
13,75000	9
13,75833	10
13,76667	10
13,77500	10
13,78333	9
13,79167	9
13,80000	10
13,80833	10
13,81667	10
13,82500	10
13,83333	10
13,84167	10
13,85000	10
13,85833	10
13,86667	10
13,87500	10
13,88333	10
13,89167	10
13,90000	10
13,90833	10
13,91667	10
13,92500	10
13,93333	10
13,94167	11
13,95000	11
13,95833	11
13,96667	11
13,97500	10
13,98333	10
13,99167	10
14,00000	11
14,00833	11
14,01667	11
14,02500	11
14,03333	11
14,04167	11
14,05000	11
14,05833	11
14,06667	11
14,07500	11
14,08333	11
14,09167	11
14,10000	12
14,10833	11
14,11667	11
14,12500	11
14,13333	10
14,14167	10
14,15000	10
14,15833	10
14,16667	10
14,17500	10
14,18333	10
14,19167	10
14,20000	10
14,20833	10
14,21667	10
14,22500	10
14,23333	11
14,24167	11
14,25000	11
14,25833	11
14,26667	11
14,27500	11
14,28333	11
14,29167	11
14,30000	11
14,30833	11
14,31667	11
14,32500	11
14,33333	11
14,34167	10
14,35000	10
14,35833	10
14,36667	10
14,37500	10
14,38333	10
14,39167	10
14,40000	10
14,40833	10
14,41667	9
14,42500	9
14,43333	9
14,44167	9
14,45000	9
14,45833	9
14,46667	10
14,47500	10
14,48333	10
14,49167	10
14,50000	10
14,50833	9
14,51667	9
14,52500	9
14,53333	9
14,54167	9
14,55000	9
14,55833	9
14,56667	9
14,57500	9
14,58333	9
14,59167	9
14,60000	9
14,60833	9
14,61667	9
14,62500	9
14,63333	10
14,64167	10
14,65000	9
14,65833	9
14,66667	10
14,67500	10
14,68333	10
14,69167	10
14,70000	10
14,70833	10
14,71667	10
14,72500	9
14,73333	9
14,74167	9
14,75000	9
14,75833	9
14,76667	10
14,77500	9
14,78333	10
14,79167	10
14,80000	10
14,80833	10
14,81667	10
14,82500	9
14,83333	9
14,84167	10
14,85000	10
14,85833	10
14,86667	10
14,87500	10
14,88333	10
14,89167	10
14,90000	10
14,90833	10
14,91667	10
14,92500	10
14,93333	10
14,94167	10
14,95000	10
14,95833	10
14,96667	10
14,97500	10
14,98333	10
14,99167	10
15,00000	10
15,00833	10
15,01667	10
15,02500	11
15,03333	11
15,04167	11
15,05000	11
15,05833	11
15,06667	11
15,07500	11
15,08333	11
15,09167	12
15,10000	12
15,10833	11
15,11667	11
15,12500	11
15,13333	11
15,14167	10
15,15000	11
15,15833	11
15,16667	11
15,17500	11
15,18333	11
15,19167	11
15,20000	11
15,20833	11
15,21667	11
15,22500	10
15,23333	10
15,24167	10
15,25000	10
15,25833	10
15,26667	11
15,27500	11
15,28333	11
15,29167	11
15,30000	11
15,30833	10
15,31667	10
15,32500	10
15,33333	9
15,34167	10
15,35000	10
15,35833	11
15,36667	11
15,37500	11
15,38333	10
15,39167	10
15,40000	10
15,40833	10
15,41667	10
15,42500	10
15,43333	10
15,44167	10
15,45000	10
15,45833	10
15,46667	10
15,47500	10
15,48333	11
15,49167	11
15,50000	11
15,50833	11
15,51667	11
15,52500	11
15,53333	11
15,54167	11
15,55000	10
15,55833	10
15,56667	11
15,57500	11
15,58333	11
15,59167	11
15,60000	11
15,60833	11
15,61667	12
15,62500	12
15,63333	12
15,64167	12
15,65000	12
15,65833	12
15,66667	11
15,67500	11
15,68333	11
15,69167	11
15,70000	11
15,70833	11
15,71667	11
15,72500	12
15,73333	12
15,74167	12
15,75000	12
15,75833	12
15,76667	13
15,77500	13
15,78333	13
15,79167	13
15,80000	12
15,80833	12
15,81667	12
15,82500	11
15,83333	11
15,84167	11
15,85000	11
15,85833	11
15,86667	11
15,87500	11
15,88333	11
15,89167	11
15,90000	11
15,90833	12
15,91667	11
15,92500	11
15,93333	11
15,94167	11
15,95000	11
15,95833	11
15,96667	11
15,97500	10
15,98333	10
15,99167	10
16,00000	10
16,00833	10
16,01667	11
16,02500	10
16,03333	10
16,04167	10
16,05000	11
16,05833	11
16,06667	11
16,07500	11
16,08333	11
16,09167	11
16,10000	11
16,10833	11
16,11667	11
16,12500	11
16,13333	10
16,14167	10
16,15000	10
16,15833	11
16,16667	11
16,17500	11
16,18333	11
16,19167	11
16,20000	11
16,20833	11
16,21667	11
16,22500	11
16,23333	11
16,24167	12
16,25000	11
16,25833	11
16,26667	11
16,27500	11
16,28333	11
16,29167	11
16,30000	11
16,30833	11
16,31667	11
16,32500	11
16,33333	11
16,34167	11
16,35000	11
16,35833	11
16,36667	11
16,37500	11
16,38333	11
16,39167	11
16,40000	12
16,40833	12
16,41667	12
16,42500	12
16,43333	12
16,44167	12
16,45000	12
16,45833	12
16,46667	12
16,47500	12
16,48333	12
16,49167	12
16,50000	11
16,50833	12
16,51667	12
16,52500	11
16,53333	11
16,54167	11
16,55000	11
16,55833	12
16,56667	12
16,57500	12
16,58333	12
16,59167	12
16,60000	12
16,60833	12
16,61667	12
16,62500	12
16,63333	12
16,64167	12
16,65000	12
16,65833	12
16,66667	12
16,67500	12
16,68333	12
16,69167	12
16,70000	13
16,70833	13
16,71667	13
16,72500	13
16,73333	14
16,74167	14
16,75000	14
16,75833	14
16,76667	14
16,77500	14
16,78333	14
16,79167	14
16,80000	14
16,80833	14
16,81667	14
16,82500	14
16,83333	13
16,84167	13
16,85000	14
16,85833	14
16,86667	14
16,87500	14
16,88333	14
16,89167	13
16,90000	13
16,90833	13
16,91667	13
16,92500	13
16,93333	13
16,94167	14
16,95000	14
16,95833	13
16,96667	13
16,97500	14
16,98333	14
16,99167	14
17,00000	14
17,00833	14
17,01667	14
17,02500	14
17,03333	13
17,04167	13
17,05000	13
17,05833	13
17,06667	13
17,07500	13
17,08333	13
17,09167	13
17,10000	13
17,10833	13
17,11667	13
17,12500	13
17,13333	13
17,14167	14
17,15000	14
17,15833	14
17,16667	14
17,17500	14
17,18333	14
17,19167	14
17,20000	14
17,20833	14
17,21667	14
17,22500	14
17,23333	14
17,24167	13
17,25000	13
17,25833	13
17,26667	13
17,27500	12
17,28333	12
17,29167	12
17,30000	12
17,30833	13
17,31667	13
17,32500	13
17,33333	13
17,34167	13
17,35000	13
17,35833	13
17,36667	14
17,37500	14
17,38333	14
17,39167	14
17,40000	13
17,40833	13
17,41667	13
17,42500	13
17,43333	14
17,44167	14
17,45000	14
17,45833	14
17,46667	13
17,47500	13
17,48333	13
17,49167	13
17,50000	13
17,50833	13
17,51667	13
17,52500	13
17,53333	14
17,54167	14
17,55000	14
17,55833	13
17,56667	14
17,57500	14
17,58333	14
17,59167	14
17,60000	14
17,60833	14
17,61667	13
17,62500	13
17,63333	13
17,64167	13
17,65000	13
17,65833	13
17,66667	13
17,67500	13
17,68333	13
17,69167	13
17,70000	14
17,70833	14
17,71667	14
17,72500	15
17,73333	15
17,74167	15
17,75000	15
17,75833	14
17,76667	14
17,77500	14
17,78333	14
17,79167	13
17,80000	14
17,80833	14
17,81667	13
17,82500	14
17,83333	14
17,84167	14
17,85000	15
17,85833	15
17,86667	15
17,87500	14
17,88333	14
17,89167	14
17,90000	14
17,90833	14
17,91667	13
17,92500	13
17,93333	13
17,94167	13
17,95000	13
17,95833	13
17,96667	13
17,97500	13
17,98333	14
17,99167	13
18,00000	13
18,00833	14
18,01667	14
18,02500	14
18,03333	14
18,04167	14
18,05000	15
18,05833	15
18,06667	15
18,07500	15
18,08333	15
18,09167	15
18,10000	15
18,10833	14
18,11667	14
18,12500	14
18,13333	14
18,14167	13
18,15000	14
18,15833	14
18,16667	14
18,17500	14
18,18333	14
18,19167	14
18,20000	13
18,20833	13
18,21667	13
18,22500	13
18,23333	13
18,24167	14
18,25000	14
18,25833	14
18,26667	14
18,27500	14
18,28333	14
18,29167	14
18,30000	14
18,30833	14
18,31667	14
18,32500	14
18,33333	14
18,34167	14
18,35000	14
18,35833	13
18,36667	14
18,37500	14
18,38333	14
18,39167	13
18,40000	13
18,40833	13
18,41667	13
18,42500	14
18,43333	14
18,44167	13
18,45000	13
18,45833	13
18,46667	13
18,47500	14
18,48333	14
18,49167	14
18,50000	14
18,50833	14
18,51667	13
18,52500	14
18,53333	14
18,54167	14
18,55000	14
18,55833	14
18,56667	14
18,57500	14
18,58333	13
18,59167	13
18,60000	13
18,60833	13
18,61667	13
18,62500	13
18,63333	13
18,64167	13
18,65000	13
18,65833	12
18,66667	12
18,67500	11
18,68333	11
18,69167	10
18,70000	10
18,70833	9
18,71667	8
18,72500	8
18,73333	7
18,74167	6
18,75000	6
18,75833	5
18,76667	4
18,77500	4
18,78333	3
18,79167	2
18,80000	1
18,80833	-1
18,81667	-2
18,82500	-3
18,83333	-4
18,84167	-5
18,85000	-7
18,85833	-8
18,86667	-10
18,87500	-12
18,88333	-14
18,89167	-15
18,90000	-17
18,90833	-19
18,91667	-21
18,92500	-23
18,93333	-26
18,94167	-28
18,95000	-31
18,95833	-33
18,96667	-35
18,97500	-38
18,98333	-40
18,99167	-43
19,00000	-46
19,00833	-48
19,01667	-51
19,02500	-53
19,03333	-55
19,04167	-58
19,05000	-60
19,05833	-62
19,06667	-63
19,07500	-65
19,08333	-67
19,09167	-68
19,10000	-70
19,10833	-71
19,11667	-72
19,12500	-73
19,13333	-74
19,14167	-74
19,15000	-74
19,15833	-74
19,16667	-74
19,17500	-73
19,18333	-72
19,19167	-71
19,20000	-70
19,20833	-69
19,21667	-67
19,22500	-65
19,23333	-64
19,24167	-61
19,25000	-58
19,25833	-56
19,26667	-53
19,27500	-50
19,28333	-47
19,29167	-44
19,30000	-41
19,30833	-38
19,31667	-35
19,32500	-32
19,33333	-28
19,34167	-25
19,35000	-22
19,35833	-18
19,36667	-15
19,37500	-12
19,38333	-8
19,39167	-5
19,40000	-2
19,40833	1
19,41667	4
19,42500	6
19,43333	9
19,44167	11
19,45000	13
19,45833	15
19,46667	18
19,47500	19
19,48333	21
19,49167	22
19,50000	24
19,50833	25
19,51667	25
19,52500	26
19,53333	27
19,54167	27
19,55000	28
19,55833	28
19,56667	28
19,57500	28
19,58333	28
19,59167	28
19,60000	27
19,60833	27
19,61667	27
19,62500	27
19,63333	27
19,64167	26
19,65000	26
19,65833	26
19,66667	25
19,67500	24
19,68333	24
19,69167	23
19,70000	23
19,70833	22
19,71667	22
19,72500	21
19,73333	21
19,74167	20
19,75000	20
19,75833	19
19,76667	19
19,77500	18
19,78333	17
19,79167	17
19,80000	17
19,80833	16
19,81667	16
19,82500	15
19,83333	15
19,84167	15
19,85000	15
19,85833	15
19,86667	15
19,87500	14
19,88333	14
19,89167	14
19,90000	14
19,90833	14
19,91667	14
19,92500	14
19,93333	14
19,94167	14
19,95000	14
19,95833	14
19,96667	14
19,97500	14
19,98333	14
19,99167	14
20,00000	14
20,00833	13
20,01667	13
20,02500	13
20,03333	13
20,04167	12
20,05000	12
20,05833	12
20,06667	12
20,07500	12
20,08333	12
20,09167	12
20,10000	11
20,10833	10
20,11667	10
20,12500	10
20,13333	10
20,14167	10
20,15000	10
20,15833	10
20,16667	10
20,17500	9
20,18333	10
20,19167	9
20,20000	9
20,20833	8
20,21667	8
20,22500	7
20,23333	6
20,24167	6
20,25000	5
20,25833	5
20,26667	4
20,27500	3
20,28333	2
20,29167	1
20,30000	1
20,30833	0
20,31667	-0
20,32500	-1
20,33333	-1
20,34167	-2
20,35000	-3
20,35833	-4
20,36667	-4
20,37500	-5
20,38333	-6
20,39167	-7
20,40000	-7
20,40833	-8
20,41667	-9
20,42500	-9
20,43333	-10
20,44167	-10
20,45000	-11
20,45833	-12
20,46667	-12
20,47500	-13
20,48333	-14
20,49167	-15
20,50000	-15
20,50833	-16
20,51667	-16
20,52500	-17
20,53333	-18
20,54167	-18
20,55000	-18
20,55833	-19
20,56667	-19
20,57500	-19
20,58333	-19
20,59167	-20
20,60000	-20
20,60833	-20
20,61667	-21
20,62500	-21
20,63333	-20
20,64167	-20
20,65000	-20
20,65833	-20
20,66667	-20
20,67500	-19
20,68333	-19
20,69167	-18
20,70000	-17
20,70833	-16
20,71667	-16
20,72500	-15
20,73333	-15
20,74167	-14
20,75000	-13
20,75833	-12
20,76667	-12
20,77500	-11
20,78333	-10
20,79167	-9
20,80000	-8
20,80833	-8
20,81667	-7
20,82500	-6
20,83333	-5
20,84167	-4
20,85000	-4
20,85833	-3
20,86667	-2
20,87500	-1
20,88333	-1
20,89167	0
20,90000	1
20,90833	2
20,91667	3
20,92500	4
20,93333	4
20,94167	5
20,95000	5
20,95833	6
20,96667	6
20,97500	7
20,98333	7
20,99167	8
21,00000	8
21,00833	9
21,01667	9
21,02500	9
21,03333	10
21,04167	10
21,05000	11
21,05833	11
21,06667	11
21,07500	11
21,08333	11
21,09167	11
21,10000	12
21,10833	12
21,11667	12
21,12500	12
21,13333	12
21,14167	12
21,15000	12
21,15833	13
21,16667	13
21,17500	13
21,18333	14
21,19167	14
21,20000	14
21,20833	14
21,21667	14
21,22500	14
21,23333	13
21,24167	13
21,25000	14
21,25833	14
21,26667	14
21,27500	15
21,28333	15
21,29167	15
21,30000	15
21,30833	15
21,31667	15
21,32500	15
21,33333	14
21,34167	14
21,35000	15
21,35833	15
21,36667	15
21,37500	15
21,38333	16
21,39167	15
21,40000	15
21,40833	16
21,41667	16
21,42500	16
21,43333	16
21,44167	16
21,45000	16
21,45833	16
21,46667	16
21,47500	16
21,48333	16
21,49167	17
21,50000	17
21,50833	16
21,51667	16
21,52500	16
21,53333	16
21,54167	16
21,55000	16
21,55833	16
21,56667	16
21,57500	16
21,58333	16
21,59167	16
21,60000	16
21,60833	15
21,61667	15
21,62500	15
21,63333	16
21,64167	16
21,65000	15
21,65833	15
21,66667	15
21,67500	16
21,68333	16
21,69167	16
21,70000	16
21,70833	16
21,71667	17
21,72500	17
21,73333	17
21,74167	17
21,75000	17
21,75833	16
21,76667	16
21,77500	16
21,78333	16
21,79167	16
21,80000	17
21,80833	18
21,81667	18
21,82500	18
21,83333	18
21,84167	18
21,85000	18
21,85833	18
21,86667	18
21,87500	18
21,88333	18
21,89167	18
21,90000	18
21,90833	17
21,91667	17
21,92500	17
21,93333	17
21,94167	16
21,95000	16
21,95833	16
21,96667	17
21,97500	17
21,98333	18
21,99167	18
22,00000	18
22,00833	18
22,01667	18
22,02500	18
22,03333	18
22,04167	18
22,05000	19
22,05833	19
22,06667	18
22,07500	18
22,08333	18
22,09167	18
22,10000	18
22,10833	18
22,11667	18
22,12500	17
22,13333	17
22,14167	18
22,15000	18
22,15833	18
22,16667	18
22,17500	18
22,18333	18
22,19167	17
22,20000	17
22,20833	17
22,21667	17
22,22500	18
22,23333	18
22,24167	18
22,25000	18
22,25833	18
22,26667	17
22,27500	17
22,28333	17
22,29167	17
22,30000	17
22,30833	17
22,31667	16
22,32500	17
22,33333	17
22,34167	17
22,35000	17
22,35833	17
22,36667	17
22,37500	18
22,38333	18
22,39167	18
22,40000	18
22,40833	18
22,41667	18
22,42500	18
22,43333	18
22,44167	17
22,45000	17
22,45833	17
22,46667	17
22,47500	17
22,48333	17
22,49167	17
22,50000	17
22,50833	18
22,51667	18
22,52500	18
22,53333	18
22,54167	18
22,55000	18
22,55833	19
22,56667	18
22,57500	18
22,58333	19
22,59167	19
22,60000	19
22,60833	19
22,61667	19
22,62500	19
22,63333	18
22,64167	18
22,65000	18
22,65833	18
22,66667	18
22,67500	18
22,68333	18
22,69167	18
22,70000	18
22,70833	18
22,71667	18
22,72500	18
22,73333	18
22,74167	17
22,75000	17
22,75833	17
22,76667	18
22,77500	18
22,78333	17
22,79167	17
22,80000	17
22,80833	17
22,81667	17
22,82500	17
22,83333	17
22,84167	17
22,85000	17
22,85833	17
22,86667	17
22,87500	17
22,88333	17
22,89167	17
22,90000	17
22,90833	17
22,91667	17
22,92500	17
22,93333	17
22,94167	17
22,95000	17
22,95833	17
22,96667	17
22,97500	17
22,98333	17
22,99167	17
23,00000	17
23,00833	17
23,01667	16
23,02500	17
23,03333	17
23,04167	17
23,05000	17
23,05833	17
23,06667	17
23,07500	17
23,08333	17
23,09167	18
23,10000	18
23,10833	18
23,11667	18
23,12500	18
23,13333	18
23,14167	18
23,15000	19
23,15833	19
23,16667	19
23,17500	19
23,18333	19
23,19167	20
23,20000	21
23,20833	21
23,21667	22
23,22500	22
23,23333	22
23,24167	23
23,25000	23
23,25833	23
23,26667	23
23,27500	23
23,28333	24
23,29167	24
23,30000	25
23,30833	26
23,31667	27
23,32500	28
23,33333	29
23,34167	29
23,35000	31
23,35833	32
23,36667	33
23,37500	34
23,38333	35
23,39167	37
23,40000	38
23,40833	39
23,41667	41
23,42500	42
23,43333	44
23,44167	46
23,45000	48
23,45833	50
23,46667	52
23,47500	55
23,48333	57
23,49167	60
23,50000	62
23,50833	66
23,51667	69
23,52500	73
23,53333	77
23,54167	81
23,55000	85
23,55833	90
23,56667	95
23,57500	101
23,58333	106
23,59167	112
23,60000	119
23,60833	126
23,61667	134
23,62500	142
23,63333	150
23,64167	159
23,65000	168
23,65833	179
23,66667	189
23,67500	200
23,68333	212
23,69167	225
23,70000	238
23,70833	252
23,71667	267
23,72500	283
23,73333	300
23,74167	317
23,75000	336
23,75833	356
23,76667	376
23,77500	398
23,78333	421
23,79167	445
23,80000	470
23,80833	497
23,81667	525
23,82500	554
23,83333	585
23,84167	617
23,85000	651
23,85833	686
23,86667	723
23,87500	762
23,88333	802
23,89167	844
23,90000	888
23,90833	934
23,91667	982
23,92500	1031
23,93333	1081
23,94167	1133
23,95000	1187
23,95833	1242
23,96667	1300
23,97500	1359
23,98333	1419
23,99167	1481
24,00000	1545
24,00833	1609
24,01667	1674
24,02500	1740
24,03333	1806
24,04167	1874
24,05000	1942
24,05833	2010
24,06667	2078
24,07500	2146
24,08333	2214
24,09167	2281
24,10000	2347
24,10833	2413
24,11667	2476
24,12500	2538
24,13333	2598
24,14167	2655
24,15000	2710
24,15833	2761
24,16667	2810
24,17500	2856
24,18333	2898
24,19167	2936
24,20000	2969
24,20833	2998
24,21667	3023
24,22500	3043
24,23333	3058
24,24167	3068
24,25000	3074
24,25833	3075
24,26667	3070
24,27500	3060
24,28333	3045
24,29167	3025
24,30000	3000
24,30833	2971
24,31667	2937
24,32500	2898
24,33333	2855
24,34167	2808
24,35000	2757
24,35833	2702
24,36667	2644
24,37500	2582
24,38333	2518
24,39167	2452
24,40000	2383
24,40833	2312
24,41667	2240
24,42500	2166
24,43333	2092
24,44167	2016
24,45000	1941
24,45833	1865
24,46667	1789
24,47500	1714
24,48333	1639
24,49167	1565
24,50000	1492
24,50833	1421
24,51667	1350
24,52500	1282
24,53333	1215
24,54167	1150
24,55000	1087
24,55833	1025
24,56667	966
24,57500	910
24,58333	855
24,59167	803
24,60000	753
24,60833	705
24,61667	659
24,62500	616
24,63333	575
24,64167	537
24,65000	500
24,65833	465
24,66667	433
24,67500	402
24,68333	374
24,69167	347
24,70000	322
24,70833	298
24,71667	277
24,72500	256
24,73333	237
24,74167	220
24,75000	204
24,75833	189
24,76667	175
24,77500	162
24,78333	150
24,79167	140
24,80000	130
24,80833	121
24,81667	113
24,82500	105
24,83333	98
24,84167	92
24,85000	86
24,85833	80
24,86667	75
24,87500	71
24,88333	67
24,89167	63
24,90000	59
24,90833	56
24,91667	54
24,92500	52
24,93333	49
24,94167	47
24,95000	46
24,95833	44
24,96667	42
24,97500	41
24,98333	39
24,99167	38
25,00000	36
25,00833	36
25,01667	35
25,02500	34
25,03333	34
25,04167	33
25,05000	32
25,05833	32
25,06667	31
25,07500	30
25,08333	30
25,09167	29
25,10000	29
25,10833	29
25,11667	28
25,12500	28
25,13333	28
25,14167	27
25,15000	27
25,15833	27
25,16667	27
25,17500	26
25,18333	26
25,19167	26
25,20000	26
25,20833	26
25,21667	26
25,22500	26
25,23333	26
25,24167	26
25,25000	26
25,25833	26
25,26667	26
25,27500	26
25,28333	26
25,29167	26
25,30000	25
25,30833	25
25,31667	25
25,32500	25
25,33333	25
25,34167	24
25,35000	24
25,35833	24
25,36667	24
25,37500	24
25,38333	24
25,39167	24
25,40000	24
25,40833	24
25,41667	24
25,42500	24
25,43333	24
25,44167	24
25,45000	25
25,45833	25
25,46667	25
25,47500	25
25,48333	25
25,49167	25
25,50000	25
25,50833	25
25,51667	25
25,52500	24
25,53333	24
25,54167	25
25,55000	24
25,55833	24
25,56667	24
25,57500	24
25,58333	25
25,59167	25
25,60000	24
25,60833	24
25,61667	24
25,62500	23
25,63333	23
25,64167	23
25,65000	23
25,65833	23
25,66667	23
25,67500	23
25,68333	24
25,69167	24
25,70000	24
25,70833	24
25,71667	24
25,72500	24
25,73333	24
25,74167	24
25,75000	24
25,75833	24
25,76667	24
25,77500	24
25,78333	25
25,79167	25
25,80000	25
25,80833	25
25,81667	25
25,82500	24
25,83333	24
25,84167	24
25,85000	24
25,85833	24
25,86667	24
25,87500	24
25,88333	24
25,89167	24
25,90000	24
25,90833	24
25,91667	24
25,92500	24
25,93333	24
25,94167	24
25,95000	24
25,95833	24
25,96667	24
25,97500	23
25,98333	23
25,99167	24
26,00000	24
26,00833	24
26,01667	24
26,02500	24
26,03333	24
26,04167	24
26,05000	24
26,05833	23
26,06667	23
26,07500	23
26,08333	23
26,09167	23
26,10000	24
26,10833	24
26,11667	24
26,12500	24
26,13333	24
26,14167	25
26,15000	25
26,15833	25
26,16667	25
26,17500	25
26,18333	25
26,19167	24
26,20000	24
26,20833	24
26,21667	24
26,22500	24
26,23333	24
26,24167	24
26,25000	24
26,25833	23
26,26667	23
26,27500	23
26,28333	23
26,29167	23
26,30000	23
26,30833	23
26,31667	23
26,32500	23
26,33333	23
26,34167	23
26,35000	23
26,35833	23
26,36667	23
26,37500	23
26,38333	23
26,39167	23
26,40000	23
26,40833	23
26,41667	23
26,42500	23
26,43333	23
26,44167	23
26,45000	23
26,45833	23
26,46667	23
26,47500	23
26,48333	23
26,49167	23
26,50000	23
26,50833	23
26,51667	23
26,52500	23
26,53333	23
26,54167	23
26,55000	22
26,55833	22
26,56667	22
26,57500	22
26,58333	22
26,59167	22
26,60000	22
26,60833	23
26,61667	23
26,62500	23
26,63333	23
26,64167	22
26,65000	22
26,65833	22
26,66667	21
26,67500	21
26,68333	22
26,69167	21
26,70000	22
26,70833	22
26,71667	22
26,72500	22
26,73333	22
26,74167	22
26,75000	22
26,75833	22
26,76667	22
26,77500	22
26,78333	22
26,79167	22
26,80000	22
26,80833	22
26,81667	22
26,82500	22
26,83333	21
26,84167	21
26,85000	21
26,85833	21
26,86667	21
26,87500	21
26,88333	21
26,89167	21
26,90000	21
26,90833	21
26,91667	21
26,92500	21
26,93333	21
26,94167	21
26,95000	21
26,95833	21
26,96667	21
26,97500	21
26,98333	21
26,99167	22
27,00000	22
27,00833	22
27,01667	22
27,02500	22
27,03333	22
27,04167	22
27,05000	22
27,05833	22
27,06667	22
27,07500	22
27,08333	22
27,09167	22
27,10000	23
27,10833	23
27,11667	23
27,12500	23
27,13333	23
27,14167	23
27,15000	23
27,15833	23
27,16667	23
27,17500	22
27,18333	22
27,19167	22
27,20000	23
27,20833	23
27,21667	23
27,22500	23
27,23333	22
27,24167	22
27,25000	23
27,25833	23
27,26667	23
27,27500	23
27,28333	23
27,29167	23
27,30000	23
27,30833	23
27,31667	23
27,32500	23
27,33333	23
27,34167	23
27,35000	23
27,35833	23
27,36667	23
27,37500	23
27,38333	23
27,39167	23
27,40000	22
27,40833	22
27,41667	22
27,42500	22
27,43333	23
27,44167	23
27,45000	23
27,45833	23
27,46667	23
27,47500	23
27,48333	24
27,49167	24
27,50000	24
27,50833	23
27,51667	23
27,52500	24
27,53333	24
27,54167	24
27,55000	25
27,55833	25
27,56667	24
27,57500	24
27,58333	24
27,59167	24
27,60000	24
27,60833	24
27,61667	24
27,62500	24
27,63333	23
27,64167	24
27,65000	24
27,65833	24
27,66667	24
27,67500	24
27,68333	24
27,69167	24
27,70000	24
27,70833	24
27,71667	24
27,72500	25
27,73333	25
27,74167	25
27,75000	25
27,75833	25
27,76667	25
27,77500	24
27,78333	24
27,79167	25
27,80000	25
27,80833	24
27,81667	24
27,82500	24
27,83333	24
27,84167	25
27,85000	24
27,85833	25
27,86667	24
27,87500	24
27,88333	24
27,89167	24
27,90000	24
27,90833	24
27,91667	25
27,92500	25
27,93333	25
27,94167	25
27,95000	25
27,95833	25
27,96667	25
27,97500	25
27,98333	25
27,99167	25
28,00000	25
28,00833	25
28,01667	25
28,02500	25
28,03333	25
28,04167	25
28,05000	25
28,05833	25
28,06667	25
28,07500	25
28,08333	25
28,09167	25
28,10000	25
28,10833	25
28,11667	25
28,12500	25
28,13333	25
28,14167	26
28,15000	26
28,15833	26
28,16667	26
28,17500	26
28,18333	26
28,19167	25
28,20000	25
28,20833	25
28,21667	25
28,22500	25
28,23333	25
28,24167	25
28,25000	25
28,25833	25
28,26667	25
28,27500	25
28,28333	24
28,29167	24
28,30000	25
28,30833	25
28,31667	25
28,32500	25
28,33333	25
28,34167	25
28,35000	25
28,35833	25
28,36667	25
28,37500	25
28,38333	25
28,39167	26
28,40000	26
28,40833	25
28,41667	25
28,42500	25
28,43333	25
28,44167	25
28,45000	25
28,45833	25
28,46667	24
28,47500	24
28,48333	25
28,49167	25
28,50000	25
28,50833	25
28,51667	25
28,52500	25
28,53333	25
28,54167	25
28,55000	25
28,55833	25
28,56667	25
28,57500	25
28,58333	25
28,59167	25
28,60000	25
28,60833	25
28,61667	25
28,62500	25
28,63333	25
28,64167	25
28,65000	25
28,65833	26
28,66667	26
28,67500	26
28,68333	26
28,69167	26
28,70000	26
28,70833	26
28,71667	26
28,72500	26
28,73333	26
28,74167	27
28,75000	27
28,75833	27
28,76667	27
28,77500	27
28,78333	27
28,79167	27
28,80000	27
28,80833	27
28,81667	27
28,82500	28
28,83333	27
28,84167	27
28,85000	27
28,85833	26
28,86667	26
28,87500	26
28,88333	27
28,89167	27
28,90000	27
28,90833	27
28,91667	27
28,92500	27
28,93333	27
28,94167	27
28,95000	27
28,95833	27
28,96667	27
28,97500	27
28,98333	27
28,99167	27
29,00000	27
29,00833	27
29,01667	27
29,02500	27
29,03333	27
29,04167	27
29,05000	27
29,05833	27
29,06667	27
29,07500	28
29,08333	28
29,09167	28
29,10000	28
29,10833	28
29,11667	28
29,12500	28
29,13333	28
29,14167	28
29,15000	27
29,15833	27
29,16667	27
29,17500	27
29,18333	27
29,19167	27
29,20000	27
29,20833	27
29,21667	27
29,22500	27
29,23333	27
29,24167	27
29,25000	27
29,25833	27
29,26667	27
29,27500	27
29,28333	27
29,29167	27
29,30000	27
29,30833	27
29,31667	27
29,32500	27
29,33333	27
29,34167	28
29,35000	28
29,35833	28
29,36667	28
29,37500	28
29,38333	27
29,39167	27
29,40000	27
29,40833	27
29,41667	27
29,42500	28
29,43333	28
29,44167	28
29,45000	28
29,45833	28
29,46667	28
29,47500	28
29,48333	28
29,49167	28
29,50000	29
29,50833	29
29,51667	29
29,52500	28
29,53333	28
29,54167	28
29,55000	28
29,55833	28
29,56667	28
29,57500	28
29,58333	27
29,59167	27
29,60000	27
29,60833	28
29,61667	28
29,62500	29
29,63333	29
29,64167	29
29,65000	29
29,65833	29
29,66667	28
29,67500	28
29,68333	27
29,69167	27
29,70000	27
29,70833	27
29,71667	27
29,72500	27
29,73333	27
29,74167	27
29,75000	28
29,75833	28
29,76667	28
29,77500	28
29,78333	28
29,79167	28
29,80000	28
29,80833	28
29,81667	28
29,82500	28
29,83333	29
29,84167	29
29,85000	29
29,85833	29
29,86667	29
29,87500	29
29,88333	29
29,89167	29
29,90000	29
29,90833	30
29,91667	30
29,92500	30
29,93333	30
29,94167	30
29,95000	30
29,95833	30
29,96667	30
29,97500	30
29,98333	30
29,99167	30
30,00000	30

