R.Time (min)	Intensity
0,00000	1
0,00833	1
0,01667	0
0,02500	0
0,03333	-0
0,04167	-1
0,05000	-1
0,05833	-2
0,06667	-2
0,07500	-2
0,08333	-1
0,09167	-1
0,10000	-1
0,10833	-1
0,11667	-1
0,12500	-1
0,13333	-0
0,14167	-0
0,15000	0
0,15833	0
0,16667	0
0,17500	0
0,18333	0
0,19167	0
0,20000	0
0,20833	0
0,21667	0
0,22500	0
0,23333	0
0,24167	0
0,25000	0
0,25833	0
0,26667	0
0,27500	1
0,28333	1
0,29167	1
0,30000	1
0,30833	1
0,31667	1
0,32500	1
0,33333	1
0,34167	2
0,35000	2
0,35833	2
0,36667	1
0,37500	1
0,38333	0
0,39167	0
0,40000	-0
0,40833	-0
0,41667	-1
0,42500	-1
0,43333	-1
0,44167	-2
0,45000	-2
0,45833	-2
0,46667	-2
0,47500	-2
0,48333	-2
0,49167	-2
0,50000	-2
0,50833	-2
0,51667	-2
0,52500	-2
0,53333	-2
0,54167	-2
0,55000	-2
0,55833	-1
0,56667	-1
0,57500	-1
0,58333	-1
0,59167	-1
0,60000	-1
0,60833	-1
0,61667	-1
0,62500	-0
0,63333	-0
0,64167	-0
0,65000	-0
0,65833	-0
0,66667	0
0,67500	0
0,68333	1
0,69167	1
0,70000	1
0,70833	1
0,71667	1
0,72500	2
0,73333	1
0,74167	1
0,75000	1
0,75833	1
0,76667	1
0,77500	1
0,78333	1
0,79167	1
0,80000	1
0,80833	2
0,81667	2
0,82500	2
0,83333	2
0,84167	2
0,85000	1
0,85833	1
0,86667	1
0,87500	1
0,88333	1
0,89167	1
0,90000	0
0,90833	0
0,91667	0
0,92500	0
0,93333	0
0,94167	0
0,95000	0
0,95833	0
0,96667	-0
0,97500	-0
0,98333	-0
0,99167	-0
1,00000	-0
1,00833	-0
1,01667	0
1,02500	0
1,03333	1
1,04167	1
1,05000	1
1,05833	2
1,06667	2
1,07500	2
1,08333	2
1,09167	2
1,10000	1
1,10833	1
1,11667	1
1,12500	1
1,13333	1
1,14167	1
1,15000	1
1,15833	1
1,16667	1
1,17500	1
1,18333	1
1,19167	1
1,20000	1
1,20833	1
1,21667	1
1,22500	1
1,23333	1
1,24167	1
1,25000	1
1,25833	1
1,26667	1
1,27500	1
1,28333	1
1,29167	1
1,30000	1
1,30833	2
1,31667	2
1,32500	1
1,33333	1
1,34167	1
1,35000	1
1,35833	1
1,36667	2
1,37500	2
1,38333	2
1,39167	2
1,40000	2
1,40833	1
1,41667	1
1,42500	1
1,43333	2
1,44167	2
1,45000	2
1,45833	1
1,46667	1
1,47500	1
1,48333	1
1,49167	1
1,50000	1
1,50833	1
1,51667	1
1,52500	1
1,53333	1
1,54167	1
1,55000	1
1,55833	1
1,56667	1
1,57500	1
1,58333	1
1,59167	1
1,60000	1
1,60833	1
1,61667	2
1,62500	2
1,63333	2
1,64167	2
1,65000	3
1,65833	3
1,66667	3
1,67500	2
1,68333	2
1,69167	2
1,70000	2
1,70833	1
1,71667	1
1,72500	1
1,73333	1
1,74167	1
1,75000	2
1,75833	2
1,76667	2
1,77500	2
1,78333	2
1,79167	2
1,80000	2
1,80833	2
1,81667	2
1,82500	2
1,83333	2
1,84167	2
1,85000	2
1,85833	2
1,86667	2
1,87500	2
1,88333	2
1,89167	2
1,90000	2
1,90833	2
1,91667	2
1,92500	2
1,93333	2
1,94167	2
1,95000	2
1,95833	2
1,96667	2
1,97500	2
1,98333	2
1,99167	2
2,00000	2
2,00833	2
2,01667	2
2,02500	2
2,03333	1
2,04167	1
2,05000	2
2,05833	2
2,06667	2
2,07500	2
2,08333	2
2,09167	2
2,10000	2
2,10833	3
2,11667	3
2,12500	3
2,13333	2
2,14167	2
2,15000	2
2,15833	2
2,16667	2
2,17500	3
2,18333	3
2,19167	2
2,20000	2
2,20833	2
2,21667	3
2,22500	3
2,23333	3
2,24167	3
2,25000	3
2,25833	3
2,26667	3
2,27500	3
2,28333	2
2,29167	2
2,30000	2
2,30833	2
2,31667	2
2,32500	2
2,33333	2
2,34167	2
2,35000	2
2,35833	2
2,36667	2
2,37500	2
2,38333	1
2,39167	1
2,40000	1
2,40833	1
2,41667	1
2,42500	1
2,43333	1
2,44167	1
2,45000	1
2,45833	1
2,46667	1
2,47500	1
2,48333	0
2,49167	0
2,50000	0
2,50833	1
2,51667	1
2,52500	0
2,53333	0
2,54167	0
2,55000	0
2,55833	0
2,56667	0
2,57500	1
2,58333	1
2,59167	1
2,60000	1
2,60833	1
2,61667	1
2,62500	1
2,63333	0
2,64167	0
2,65000	0
2,65833	0
2,66667	0
2,67500	0
2,68333	1
2,69167	1
2,70000	1
2,70833	1
2,71667	2
2,72500	2
2,73333	2
2,74167	2
2,75000	2
2,75833	2
2,76667	2
2,77500	2
2,78333	2
2,79167	2
2,80000	2
2,80833	2
2,81667	2
2,82500	2
2,83333	2
2,84167	2
2,85000	2
2,85833	2
2,86667	2
2,87500	2
2,88333	2
2,89167	1
2,90000	1
2,90833	1
2,91667	1
2,92500	2
2,93333	2
2,94167	3
2,95000	3
2,95833	3
2,96667	3
2,97500	3
2,98333	3
2,99167	3
3,00000	3
3,00833	3
3,01667	3
3,02500	3
3,03333	2
3,04167	2
3,05000	2
3,05833	2
3,06667	2
3,07500	2
3,08333	2
3,09167	2
3,10000	3
3,10833	3
3,11667	3
3,12500	3
3,13333	3
3,14167	3
3,15000	3
3,15833	3
3,16667	3
3,17500	3
3,18333	4
3,19167	4
3,20000	4
3,20833	4
3,21667	4
3,22500	4
3,23333	4
3,24167	4
3,25000	4
3,25833	4
3,26667	4
3,27500	3
3,28333	3
3,29167	3
3,30000	3
3,30833	3
3,31667	3
3,32500	4
3,33333	4
3,34167	4
3,35000	4
3,35833	4
3,36667	3
3,37500	3
3,38333	3
3,39167	3
3,40000	3
3,40833	4
3,41667	4
3,42500	4
3,43333	4
3,44167	4
3,45000	4
3,45833	4
3,46667	4
3,47500	4
3,48333	4
3,49167	4
3,50000	5
3,50833	5
3,51667	5
3,52500	5
3,53333	5
3,54167	4
3,55000	4
3,55833	4
3,56667	3
3,57500	3
3,58333	3
3,59167	3
3,60000	3
3,60833	3
3,61667	3
3,62500	3
3,63333	3
3,64167	3
3,65000	3
3,65833	3
3,66667	3
3,67500	3
3,68333	3
3,69167	3
3,70000	4
3,70833	4
3,71667	3
3,72500	3
3,73333	3
3,74167	3
3,75000	3
3,75833	3
3,76667	4
3,77500	4
3,78333	3
3,79167	3
3,80000	3
3,80833	4
3,81667	4
3,82500	4
3,83333	5
3,84167	5
3,85000	5
3,85833	4
3,86667	4
3,87500	4
3,88333	4
3,89167	4
3,90000	4
3,90833	4
3,91667	4
3,92500	4
3,93333	4
3,94167	4
3,95000	4
3,95833	5
3,96667	5
3,97500	5
3,98333	5
3,99167	5
4,00000	5
4,00833	5
4,01667	5
4,02500	5
4,03333	5
4,04167	5
4,05000	5
4,05833	5
4,06667	5
4,07500	5
4,08333	5
4,09167	5
4,10000	5
4,10833	5
4,11667	6
4,12500	6
4,13333	6
4,14167	6
4,15000	6
4,15833	6
4,16667	6
4,17500	5
4,18333	5
4,19167	5
4,20000	5
4,20833	5
4,21667	5
4,22500	6
4,23333	6
4,24167	6
4,25000	6
4,25833	6
4,26667	6
4,27500	6
4,28333	6
4,29167	6
4,30000	6
4,30833	5
4,31667	6
4,32500	6
4,33333	6
4,34167	6
4,35000	6
4,35833	6
4,36667	6
4,37500	6
4,38333	6
4,39167	6
4,40000	6
4,40833	6
4,41667	6
4,42500	5
4,43333	5
4,44167	5
4,45000	5
4,45833	5
4,46667	5
4,47500	5
4,48333	5
4,49167	5
4,50000	5
4,50833	5
4,51667	6
4,52500	6
4,53333	6
4,54167	6
4,55000	5
4,55833	5
4,56667	5
4,57500	6
4,58333	6
4,59167	6
4,60000	6
4,60833	6
4,61667	6
4,62500	6
4,63333	5
4,64167	5
4,65000	5
4,65833	5
4,66667	5
4,67500	5
4,68333	5
4,69167	5
4,70000	5
4,70833	6
4,71667	6
4,72500	6
4,73333	6
4,74167	6
4,75000	6
4,75833	6
4,76667	6
4,77500	6
4,78333	6
4,79167	5
4,80000	5
4,80833	5
4,81667	5
4,82500	5
4,83333	5
4,84167	5
4,85000	5
4,85833	5
4,86667	5
4,87500	5
4,88333	5
4,89167	6
4,90000	6
4,90833	6
4,91667	6
4,92500	6
4,93333	6
4,94167	7
4,95000	7
4,95833	7
4,96667	6
4,97500	6
4,98333	7
4,99167	7
5,00000	7
5,00833	7
5,01667	7
5,02500	7
5,03333	6
5,04167	6
5,05000	6
5,05833	6
5,06667	6
5,07500	6
5,08333	6
5,09167	6
5,10000	6
5,10833	6
5,11667	6
5,12500	6
5,13333	5
5,14167	5
5,15000	5
5,15833	6
5,16667	6
5,17500	6
5,18333	6
5,19167	7
5,20000	7
5,20833	7
5,21667	7
5,22500	7
5,23333	6
5,24167	6
5,25000	6
5,25833	6
5,26667	7
5,27500	7
5,28333	7
5,29167	7
5,30000	7
5,30833	7
5,31667	7
5,32500	6
5,33333	6
5,34167	6
5,35000	5
5,35833	5
5,36667	5
5,37500	5
5,38333	5
5,39167	6
5,40000	6
5,40833	6
5,41667	7
5,42500	7
5,43333	7
5,44167	7
5,45000	7
5,45833	7
5,46667	7
5,47500	7
5,48333	7
5,49167	7
5,50000	7
5,50833	7
5,51667	7
5,52500	7
5,53333	6
5,54167	6
5,55000	6
5,55833	7
5,56667	7
5,57500	7
5,58333	7
5,59167	7
5,60000	7
5,60833	7
5,61667	7
5,62500	7
5,63333	7
5,64167	7
5,65000	7
5,65833	6
5,66667	6
5,67500	6
5,68333	6
5,69167	7
5,70000	7
5,70833	7
5,71667	6
5,72500	6
5,73333	6
5,74167	6
5,75000	6
5,75833	5
5,76667	5
5,77500	5
5,78333	5
5,79167	5
5,80000	5
5,80833	5
5,81667	5
5,82500	5
5,83333	5
5,84167	5
5,85000	5
5,85833	5
5,86667	5
5,87500	4
5,88333	4
5,89167	4
5,90000	4
5,90833	5
5,91667	5
5,92500	5
5,93333	5
5,94167	5
5,95000	5
5,95833	5
5,96667	5
5,97500	5
5,98333	5
5,99167	5
6,00000	4
6,00833	4
6,01667	4
6,02500	4
6,03333	4
6,04167	4
6,05000	3
6,05833	3
6,06667	4
6,07500	4
6,08333	4
6,09167	4
6,10000	4
6,10833	4
6,11667	5
6,12500	6
6,13333	7
6,14167	9
6,15000	12
6,15833	16
6,16667	23
6,17500	33
6,18333	48
6,19167	71
6,20000	103
6,20833	150
6,21667	217
6,22500	310
6,23333	437
6,24167	609
6,25000	836
6,25833	1130
6,26667	1505
6,27500	1974
6,28333	2548
6,29167	3237
6,30000	4048
6,30833	4982
6,31667	6035
6,32500	7196
6,33333	8446
6,34167	9758
6,35000	11097
6,35833	12422
6,36667	13684
6,37500	14836
6,38333	15830
6,39167	16623
6,40000	17181
6,40833	17480
6,41667	17511
6,42500	17278
6,43333	16797
6,44167	16096
6,45000	15214
6,45833	14191
6,46667	13072
6,47500	11899
6,48333	10711
6,49167	9540
6,50000	8415
6,50833	7356
6,51667	6377
6,52500	5485
6,53333	4686
6,54167	3978
6,55000	3358
6,55833	2821
6,56667	2360
6,57500	1968
6,58333	1636
6,59167	1357
6,60000	1124
6,60833	930
6,61667	770
6,62500	638
6,63333	530
6,64167	441
6,65000	369
6,65833	309
6,66667	261
6,67500	221
6,68333	189
6,69167	162
6,70000	141
6,70833	123
6,71667	107
6,72500	95
6,73333	84
6,74167	76
6,75000	69
6,75833	62
6,76667	57
6,77500	52
6,78333	49
6,79167	45
6,80000	42
6,80833	40
6,81667	37
6,82500	35
6,83333	34
6,84167	32
6,85000	31
6,85833	30
6,86667	29
6,87500	28
6,88333	27
6,89167	26
6,90000	25
6,90833	24
6,91667	23
6,92500	22
6,93333	22
6,94167	21
6,95000	20
6,95833	20
6,96667	19
6,97500	18
6,98333	18
6,99167	18
7,00000	17
7,00833	17
7,01667	17
7,02500	17
7,03333	17
7,04167	16
7,05000	16
7,05833	15
7,06667	15
7,07500	15
7,08333	15
7,09167	14
7,10000	14
7,10833	14
7,11667	14
7,12500	14
7,13333	13
7,14167	13
7,15000	12
7,15833	12
7,16667	12
7,17500	12
7,18333	12
7,19167	12
7,20000	12
7,20833	12
7,21667	12
7,22500	12
7,23333	12
7,24167	12
7,25000	12
7,25833	12
7,26667	12
7,27500	12
7,28333	12
7,29167	12
7,30000	12
7,30833	12
7,31667	11
7,32500	11
7,33333	11
7,34167	11
7,35000	11
7,35833	11
7,36667	10
7,37500	10
7,38333	10
7,39167	10
7,40000	10
7,40833	10
7,41667	10
7,42500	10
7,43333	10
7,44167	10
7,45000	10
7,45833	10
7,46667	10
7,47500	9
7,48333	9
7,49167	9
7,50000	9
7,50833	9
7,51667	10
7,52500	10
7,53333	11
7,54167	11
7,55000	11
7,55833	10
7,56667	10
7,57500	10
7,58333	10
7,59167	10
7,60000	9
7,60833	9
7,61667	9
7,62500	9
7,63333	9
7,64167	9
7,65000	9
7,65833	9
7,66667	9
7,67500	9
7,68333	9
7,69167	9
7,70000	9
7,70833	9
7,71667	9
7,72500	9
7,73333	9
7,74167	9
7,75000	9
7,75833	9
7,76667	9
7,77500	8
7,78333	8
7,79167	8
7,80000	9
7,80833	9
7,81667	9
7,82500	8
7,83333	8
7,84167	8
7,85000	8
7,85833	8
7,86667	8
7,87500	8
7,88333	8
7,89167	8
7,90000	9
7,90833	8
7,91667	8
7,92500	8
7,93333	8
7,94167	8
7,95000	8
7,95833	8
7,96667	8
7,97500	8
7,98333	8
7,99167	7
8,00000	7
8,00833	8
8,01667	8
8,02500	8
8,03333	8
8,04167	8
8,05000	8
8,05833	8
8,06667	7
8,07500	7
8,08333	7
8,09167	7
8,10000	7
8,10833	7
8,11667	7
8,12500	7
8,13333	6
8,14167	7
8,15000	7
8,15833	7
8,16667	7
8,17500	7
8,18333	7
8,19167	7
8,20000	7
8,20833	7
8,21667	7
8,22500	7
8,23333	7
8,24167	7
8,25000	7
8,25833	7
8,26667	7
8,27500	7
8,28333	7
8,29167	7
8,30000	7
8,30833	7
8,31667	7
8,32500	7
8,33333	7
8,34167	7
8,35000	7
8,35833	7
8,36667	7
8,37500	7
8,38333	7
8,39167	7
8,40000	7
8,40833	7
8,41667	7
8,42500	7
8,43333	7
8,44167	7
8,45000	7
8,45833	7
8,46667	7
8,47500	7
8,48333	8
8,49167	8
8,50000	8
8,50833	8
8,51667	8
8,52500	8
8,53333	8
8,54167	8
8,55000	8
8,55833	7
8,56667	8
8,57500	7
8,58333	7
8,59167	7
8,60000	7
8,60833	7
8,61667	7
8,62500	7
8,63333	7
8,64167	7
8,65000	8
8,65833	8
8,66667	8
8,67500	8
8,68333	8
8,69167	8
8,70000	8
8,70833	8
8,71667	8
8,72500	8
8,73333	7
8,74167	8
8,75000	8
8,75833	8
8,76667	8
8,77500	8
8,78333	8
8,79167	8
8,80000	8
8,80833	8
8,81667	8
8,82500	8
8,83333	8
8,84167	8
8,85000	8
8,85833	8
8,86667	8
8,87500	8
8,88333	8
8,89167	8
8,90000	8
8,90833	8
8,91667	8
8,92500	8
8,93333	8
8,94167	8
8,95000	8
8,95833	8
8,96667	8
8,97500	8
8,98333	8
8,99167	8
9,00000	9
9,00833	8
9,01667	8
9,02500	8
9,03333	8
9,04167	8
9,05000	8
9,05833	8
9,06667	8
9,07500	8
9,08333	8
9,09167	8
9,10000	9
9,10833	9
9,11667	9
9,12500	9
9,13333	9
9,14167	9
9,15000	9
9,15833	9
9,16667	9
9,17500	9
9,18333	9
9,19167	9
9,20000	9
9,20833	9
9,21667	8
9,22500	8
9,23333	8
9,24167	7
9,25000	7
9,25833	7
9,26667	7
9,27500	7
9,28333	7
9,29167	7
9,30000	7
9,30833	8
9,31667	8
9,32500	8
9,33333	8
9,34167	8
9,35000	8
9,35833	8
9,36667	8
9,37500	8
9,38333	8
9,39167	9
9,40000	9
9,40833	9
9,41667	9
9,42500	8
9,43333	8
9,44167	8
9,45000	8
9,45833	8
9,46667	8
9,47500	9
9,48333	9
9,49167	8
9,50000	8
9,50833	8
9,51667	8
9,52500	8
9,53333	8
9,54167	8
9,55000	8
9,55833	8
9,56667	8
9,57500	8
9,58333	8
9,59167	8
9,60000	8
9,60833	7
9,61667	7
9,62500	7
9,63333	6
9,64167	6
9,65000	6
9,65833	7
9,66667	7
9,67500	7
9,68333	7
9,69167	7
9,70000	7
9,70833	7
9,71667	7
9,72500	7
9,73333	7
9,74167	8
9,75000	8
9,75833	8
9,76667	8
9,77500	8
9,78333	8
9,79167	8
9,80000	8
9,80833	9
9,81667	8
9,82500	8
9,83333	8
9,84167	8
9,85000	8
9,85833	8
9,86667	8
9,87500	8
9,88333	8
9,89167	8
9,90000	7
9,90833	7
9,91667	7
9,92500	7
9,93333	7
9,94167	8
9,95000	8
9,95833	8
9,96667	7
9,97500	7
9,98333	7
9,99167	7
10,00000	7
10,00833	8
10,01667	8
10,02500	8
10,03333	8
10,04167	8
10,05000	8
10,05833	8
10,06667	8
10,07500	8
10,08333	7
10,09167	7
10,10000	8
10,10833	8
10,11667	8
10,12500	7
10,13333	8
10,14167	8
10,15000	8
10,15833	7
10,16667	7
10,17500	7
10,18333	7
10,19167	7
10,20000	7
10,20833	7
10,21667	7
10,22500	7
10,23333	7
10,24167	7
10,25000	7
10,25833	7
10,26667	7
10,27500	7
10,28333	7
10,29167	7
10,30000	7
10,30833	7
10,31667	7
10,32500	7
10,33333	7
10,34167	7
10,35000	7
10,35833	6
10,36667	7
10,37500	7
10,38333	7
10,39167	7
10,40000	7
10,40833	8
10,41667	8
10,42500	8
10,43333	8
10,44167	8
10,45000	8
10,45833	8
10,46667	7
10,47500	7
10,48333	7
10,49167	7
10,50000	8
10,50833	7
10,51667	8
10,52500	8
10,53333	8
10,54167	8
10,55000	8
10,55833	7
10,56667	7
10,57500	7
10,58333	7
10,59167	7
10,60000	8
10,60833	8
10,61667	8
10,62500	7
10,63333	7
10,64167	7
10,65000	7
10,65833	7
10,66667	7
10,67500	6
10,68333	6
10,69167	6
10,70000	6
10,70833	6
10,71667	7
10,72500	7
10,73333	7
10,74167	7
10,75000	8
10,75833	8
10,76667	7
10,77500	7
10,78333	7
10,79167	7
10,80000	8
10,80833	8
10,81667	8
10,82500	8
10,83333	8
10,84167	7
10,85000	7
10,85833	8
10,86667	7
10,87500	7
10,88333	7
10,89167	7
10,90000	7
10,90833	8
10,91667	8
10,92500	8
10,93333	8
10,94167	8
10,95000	8
10,95833	8
10,96667	7
10,97500	7
10,98333	7
10,99167	8
11,00000	8
11,00833	8
11,01667	8
11,02500	8
11,03333	8
11,04167	8
11,05000	8
11,05833	8
11,06667	8
11,07500	8
11,08333	9
11,09167	8
11,10000	8
11,10833	7
11,11667	7
11,12500	8
11,13333	8
11,14167	7
11,15000	7
11,15833	7
11,16667	8
11,17500	8
11,18333	8
11,19167	7
11,20000	7
11,20833	7
11,21667	7
11,22500	7
11,23333	8
11,24167	8
11,25000	9
11,25833	9
11,26667	9
11,27500	9
11,28333	9
11,29167	9
11,30000	8
11,30833	8
11,31667	8
11,32500	8
11,33333	9
11,34167	9
11,35000	9
11,35833	9
11,36667	9
11,37500	9
11,38333	8
11,39167	8
11,40000	9
11,40833	9
11,41667	9
11,42500	9
11,43333	9
11,44167	9
11,45000	9
11,45833	9
11,46667	10
11,47500	10
11,48333	10
11,49167	10
11,50000	9
11,50833	9
11,51667	9
11,52500	9
11,53333	9
11,54167	9
11,55000	9
11,55833	9
11,56667	10
11,57500	10
11,58333	10
11,59167	10
11,60000	10
11,60833	9
11,61667	9
11,62500	9
11,63333	10
11,64167	10
11,65000	9
11,65833	10
11,66667	10
11,67500	10
11,68333	10
11,69167	10
11,70000	10
11,70833	9
11,71667	9
11,72500	9
11,73333	10
11,74167	10
11,75000	10
11,75833	10
11,76667	10
11,77500	10
11,78333	10
11,79167	10
11,80000	10
11,80833	10
11,81667	10
11,82500	10
11,83333	11
11,84167	11
11,85000	11
11,85833	11
11,86667	11
11,87500	11
11,88333	10
11,89167	10
11,90000	10
11,90833	10
11,91667	10
11,92500	10
11,93333	10
11,94167	10
11,95000	10
11,95833	10
11,96667	10
11,97500	10
11,98333	10
11,99167	10
12,00000	10
12,00833	10
12,01667	10
12,02500	10
12,03333	10
12,04167	10
12,05000	10
12,05833	10
12,06667	10
12,07500	10
12,08333	10
12,09167	10
12,10000	10
12,10833	10
12,11667	11
12,12500	11
12,13333	11
12,14167	10
12,15000	10
12,15833	10
12,16667	10
12,17500	10
12,18333	10
12,19167	10
12,20000	11
12,20833	11
12,21667	11
12,22500	11
12,23333	11
12,24167	11
12,25000	12
12,25833	11
12,26667	11
12,27500	11
12,28333	11
12,29167	11
12,30000	10
12,30833	11
12,31667	11
12,32500	11
12,33333	11
12,34167	11
12,35000	11
12,35833	11
12,36667	11
12,37500	10
12,38333	10
12,39167	10
12,40000	10
12,40833	10
12,41667	10
12,42500	10
12,43333	10
12,44167	10
12,45000	10
12,45833	10
12,46667	10
12,47500	10
12,48333	10
12,49167	11
12,50000	11
12,50833	11
12,51667	11
12,52500	11
12,53333	11
12,54167	10
12,55000	10
12,55833	10
12,56667	10
12,57500	10
12,58333	10
12,59167	10
12,60000	10
12,60833	10
12,61667	11
12,62500	11
12,63333	11
12,64167	11
12,65000	10
12,65833	10
12,66667	10
12,67500	10
12,68333	10
12,69167	10
12,70000	11
12,70833	11
12,71667	11
12,72500	11
12,73333	11
12,74167	11
12,75000	11
12,75833	11
12,76667	11
12,77500	11
12,78333	11
12,79167	10
12,80000	11
12,80833	11
12,81667	11
12,82500	11
12,83333	11
12,84167	11
12,85000	11
12,85833	11
12,86667	11
12,87500	11
12,88333	11
12,89167	11
12,90000	11
12,90833	11
12,91667	11
12,92500	11
12,93333	11
12,94167	11
12,95000	11
12,95833	11
12,96667	11
12,97500	11
12,98333	10
12,99167	10
13,00000	10
13,00833	10
13,01667	10
13,02500	10
13,03333	10
13,04167	10
13,05000	10
13,05833	10
13,06667	10
13,07500	10
13,08333	10
13,09167	11
13,10000	11
13,10833	11
13,11667	10
13,12500	10
13,13333	10
13,14167	9
13,15000	9
13,15833	9
13,16667	10
13,17500	9
13,18333	9
13,19167	9
13,20000	9
13,20833	9
13,21667	10
13,22500	10
13,23333	10
13,24167	10
13,25000	10
13,25833	10
13,26667	10
13,27500	11
13,28333	11
13,29167	11
13,30000	11
13,30833	12
13,31667	12
13,32500	11
13,33333	11
13,34167	11
13,35000	11
13,35833	11
13,36667	11
13,37500	11
13,38333	11
13,39167	11
13,40000	11
13,40833	11
13,41667	11
13,42500	11
13,43333	10
13,44167	11
13,45000	11
13,45833	11
13,46667	11
13,47500	11
13,48333	11
13,49167	11
13,50000	11
13,50833	11
13,51667	12
13,52500	12
13,53333	12
13,54167	13
13,55000	13
13,55833	13
13,56667	12
13,57500	12
13,58333	12
13,59167	13
13,60000	13
13,60833	13
13,61667	13
13,62500	13
13,63333	13
13,64167	13
13,65000	13
13,65833	14
13,66667	14
13,67500	13
13,68333	14
13,69167	14
13,70000	14
13,70833	14
13,71667	14
13,72500	14
13,73333	14
13,74167	14
13,75000	14
13,75833	14
13,76667	14
13,77500	14
13,78333	14
13,79167	14
13,80000	13
13,80833	13
13,81667	13
13,82500	13
13,83333	13
13,84167	13
13,85000	12
13,85833	12
13,86667	13
13,87500	13
13,88333	13
13,89167	12
13,90000	12
13,90833	12
13,91667	11
13,92500	11
13,93333	11
13,94167	11
13,95000	11
13,95833	11
13,96667	11
13,97500	11
13,98333	11
13,99167	11
14,00000	11
14,00833	11
14,01667	11
14,02500	11
14,03333	11
14,04167	11
14,05000	11
14,05833	11
14,06667	11
14,07500	11
14,08333	12
14,09167	12
14,10000	12
14,10833	12
14,11667	12
14,12500	12
14,13333	12
14,14167	11
14,15000	11
14,15833	12
14,16667	12
14,17500	13
14,18333	13
14,19167	13
14,20000	14
14,20833	14
14,21667	14
14,22500	14
14,23333	14
14,24167	14
14,25000	14
14,25833	15
14,26667	15
14,27500	15
14,28333	15
14,29167	15
14,30000	14
14,30833	14
14,31667	14
14,32500	13
14,33333	13
14,34167	13
14,35000	13
14,35833	13
14,36667	13
14,37500	13
14,38333	13
14,39167	13
14,40000	13
14,40833	13
14,41667	13
14,42500	13
14,43333	13
14,44167	13
14,45000	13
14,45833	13
14,46667	13
14,47500	12
14,48333	12
14,49167	12
14,50000	12
14,50833	12
14,51667	12
14,52500	12
14,53333	12
14,54167	12
14,55000	11
14,55833	12
14,56667	12
14,57500	12
14,58333	12
14,59167	12
14,60000	12
14,60833	12
14,61667	13
14,62500	13
14,63333	13
14,64167	13
14,65000	13
14,65833	13
14,66667	13
14,67500	13
14,68333	13
14,69167	13
14,70000	13
14,70833	12
14,71667	12
14,72500	11
14,73333	11
14,74167	11
14,75000	11
14,75833	10
14,76667	10
14,77500	10
14,78333	10
14,79167	10
14,80000	10
14,80833	10
14,81667	10
14,82500	10
14,83333	10
14,84167	11
14,85000	11
14,85833	11
14,86667	11
14,87500	11
14,88333	11
14,89167	11
14,90000	11
14,90833	11
14,91667	11
14,92500	11
14,93333	11
14,94167	12
14,95000	12
14,95833	11
14,96667	11
14,97500	11
14,98333	11
14,99167	11
15,00000	11
15,00833	11
15,01667	11
15,02500	11
15,03333	11
15,04167	12
15,05000	12
15,05833	12
15,06667	12
15,07500	12
15,08333	12
15,09167	12
15,10000	12
15,10833	12
15,11667	12
15,12500	12
15,13333	12
15,14167	12
15,15000	12
15,15833	12
15,16667	12
15,17500	11
15,18333	11
15,19167	11
15,20000	11
15,20833	11
15,21667	11
15,22500	11
15,23333	12
15,24167	12
15,25000	11
15,25833	11
15,26667	11
15,27500	11
15,28333	11
15,29167	11
15,30000	12
15,30833	12
15,31667	12
15,32500	12
15,33333	12
15,34167	12
15,35000	12
15,35833	12
15,36667	12
15,37500	12
15,38333	12
15,39167	12
15,40000	12
15,40833	12
15,41667	12
15,42500	12
15,43333	12
15,44167	12
15,45000	12
15,45833	12
15,46667	12
15,47500	12
15,48333	12
15,49167	12
15,50000	12
15,50833	12
15,51667	12
15,52500	13
15,53333	13
15,54167	13
15,55000	13
15,55833	13
15,56667	13
15,57500	13
15,58333	13
15,59167	13
15,60000	13
15,60833	13
15,61667	13
15,62500	13
15,63333	12
15,64167	12
15,65000	12
15,65833	12
15,66667	12
15,67500	11
15,68333	11
15,69167	11
15,70000	11
15,70833	11
15,71667	12
15,72500	12
15,73333	12
15,74167	12
15,75000	12
15,75833	12
15,76667	12
15,77500	12
15,78333	12
15,79167	12
15,80000	12
15,80833	12
15,81667	12
15,82500	12
15,83333	12
15,84167	12
15,85000	12
15,85833	12
15,86667	12
15,87500	12
15,88333	12
15,89167	12
15,90000	13
15,90833	13
15,91667	13
15,92500	13
15,93333	13
15,94167	13
15,95000	13
15,95833	13
15,96667	13
15,97500	13
15,98333	13
15,99167	13
16,00000	13
16,00833	13
16,01667	13
16,02500	13
16,03333	13
16,04167	13
16,05000	13
16,05833	13
16,06667	13
16,07500	13
16,08333	13
16,09167	13
16,10000	13
16,10833	13
16,11667	13
16,12500	13
16,13333	13
16,14167	13
16,15000	13
16,15833	13
16,16667	13
16,17500	13
16,18333	13
16,19167	13
16,20000	13
16,20833	13
16,21667	13
16,22500	14
16,23333	14
16,24167	14
16,25000	14
16,25833	15
16,26667	15
16,27500	14
16,28333	14
16,29167	14
16,30000	14
16,30833	15
16,31667	14
16,32500	14
16,33333	14
16,34167	14
16,35000	14
16,35833	14
16,36667	14
16,37500	15
16,38333	15
16,39167	15
16,40000	15
16,40833	15
16,41667	15
16,42500	14
16,43333	14
16,44167	14
16,45000	14
16,45833	14
16,46667	14
16,47500	14
16,48333	14
16,49167	14
16,50000	14
16,50833	14
16,51667	14
16,52500	14
16,53333	14
16,54167	14
16,55000	14
16,55833	14
16,56667	14
16,57500	14
16,58333	14
16,59167	14
16,60000	14
16,60833	14
16,61667	13
16,62500	13
16,63333	14
16,64167	14
16,65000	13
16,65833	13
16,66667	13
16,67500	14
16,68333	14
16,69167	14
16,70000	14
16,70833	14
16,71667	14
16,72500	14
16,73333	14
16,74167	14
16,75000	14
16,75833	14
16,76667	14
16,77500	14
16,78333	14
16,79167	14
16,80000	13
16,80833	13
16,81667	13
16,82500	14
16,83333	14
16,84167	14
16,85000	14
16,85833	14
16,86667	14
16,87500	14
16,88333	14
16,89167	14
16,90000	14
16,90833	14
16,91667	14
16,92500	14
16,93333	14
16,94167	14
16,95000	14
16,95833	14
16,96667	14
16,97500	14
16,98333	13
16,99167	13
17,00000	13
17,00833	13
17,01667	13
17,02500	14
17,03333	14
17,04167	14
17,05000	14
17,05833	14
17,06667	14
17,07500	14
17,08333	14
17,09167	14
17,10000	14
17,10833	14
17,11667	14
17,12500	14
17,13333	14
17,14167	14
17,15000	14
17,15833	14
17,16667	14
17,17500	14
17,18333	14
17,19167	14
17,20000	14
17,20833	14
17,21667	14
17,22500	14
17,23333	14
17,24167	14
17,25000	14
17,25833	14
17,26667	13
17,27500	13
17,28333	13
17,29167	14
17,30000	14
17,30833	14
17,31667	13
17,32500	14
17,33333	14
17,34167	14
17,35000	14
17,35833	15
17,36667	15
17,37500	15
17,38333	15
17,39167	15
17,40000	15
17,40833	14
17,41667	14
17,42500	14
17,43333	14
17,44167	14
17,45000	13
17,45833	13
17,46667	13
17,47500	13
17,48333	13
17,49167	14
17,50000	13
17,50833	13
17,51667	13
17,52500	13
17,53333	14
17,54167	14
17,55000	14
17,55833	14
17,56667	14
17,57500	14
17,58333	13
17,59167	13
17,60000	13
17,60833	13
17,61667	13
17,62500	14
17,63333	14
17,64167	14
17,65000	14
17,65833	14
17,66667	14
17,67500	14
17,68333	14
17,69167	14
17,70000	14
17,70833	13
17,71667	13
17,72500	13
17,73333	13
17,74167	13
17,75000	13
17,75833	13
17,76667	14
17,77500	14
17,78333	14
17,79167	14
17,80000	14
17,80833	14
17,81667	14
17,82500	14
17,83333	14
17,84167	14
17,85000	14
17,85833	14
17,86667	14
17,87500	14
17,88333	14
17,89167	14
17,90000	14
17,90833	14
17,91667	14
17,92500	14
17,93333	13
17,94167	13
17,95000	14
17,95833	14
17,96667	14
17,97500	14
17,98333	14
17,99167	15
18,00000	14
18,00833	14
18,01667	14
18,02500	14
18,03333	14
18,04167	14
18,05000	14
18,05833	14
18,06667	14
18,07500	14
18,08333	14
18,09167	14
18,10000	14
18,10833	14
18,11667	14
18,12500	15
18,13333	15
18,14167	15
18,15000	15
18,15833	15
18,16667	15
18,17500	15
18,18333	15
18,19167	15
18,20000	16
18,20833	16
18,21667	16
18,22500	15
18,23333	15
18,24167	15
18,25000	15
18,25833	15
18,26667	15
18,27500	15
18,28333	15
18,29167	15
18,30000	15
18,30833	15
18,31667	15
18,32500	15
18,33333	15
18,34167	15
18,35000	14
18,35833	14
18,36667	14
18,37500	14
18,38333	14
18,39167	15
18,40000	15
18,40833	14
18,41667	14
18,42500	14
18,43333	15
18,44167	15
18,45000	15
18,45833	15
18,46667	15
18,47500	15
18,48333	15
18,49167	16
18,50000	15
18,50833	15
18,51667	15
18,52500	15
18,53333	14
18,54167	15
18,55000	15
18,55833	15
18,56667	15
18,57500	15
18,58333	15
18,59167	14
18,60000	14
18,60833	13
18,61667	13
18,62500	13
18,63333	12
18,64167	12
18,65000	12
18,65833	12
18,66667	12
18,67500	11
18,68333	11
18,69167	10
18,70000	10
18,70833	9
18,71667	9
18,72500	8
18,73333	8
18,74167	8
18,75000	8
18,75833	8
18,76667	7
18,77500	6
18,78333	5
18,79167	4
18,80000	3
18,80833	2
18,81667	1
18,82500	-1
18,83333	-2
18,84167	-4
18,85000	-5
18,85833	-6
18,86667	-8
18,87500	-9
18,88333	-10
18,89167	-11
18,90000	-13
18,90833	-15
18,91667	-16
18,92500	-19
18,93333	-21
18,94167	-23
18,95000	-25
18,95833	-27
18,96667	-29
18,97500	-32
18,98333	-34
18,99167	-37
19,00000	-39
19,00833	-41
19,01667	-44
19,02500	-46
19,03333	-48
19,04167	-50
19,05000	-51
19,05833	-53
19,06667	-55
19,07500	-56
19,08333	-58
19,09167	-59
19,10000	-60
19,10833	-61
19,11667	-63
19,12500	-64
19,13333	-65
19,14167	-65
19,15000	-66
19,15833	-66
19,16667	-67
19,17500	-66
19,18333	-66
19,19167	-66
19,20000	-65
19,20833	-65
19,21667	-64
19,22500	-63
19,23333	-62
19,24167	-61
19,25000	-59
19,25833	-58
19,26667	-56
19,27500	-54
19,28333	-52
19,29167	-51
19,30000	-49
19,30833	-47
19,31667	-45
19,32500	-43
19,33333	-41
19,34167	-39
19,35000	-37
19,35833	-35
19,36667	-33
19,37500	-30
19,38333	-28
19,39167	-26
19,40000	-24
19,40833	-21
19,41667	-19
19,42500	-17
19,43333	-16
19,44167	-14
19,45000	-13
19,45833	-11
19,46667	-10
19,47500	-8
19,48333	-6
19,49167	-5
19,50000	-4
19,50833	-2
19,51667	-1
19,52500	0
19,53333	1
19,54167	1
19,55000	2
19,55833	3
19,56667	4
19,57500	5
19,58333	6
19,59167	6
19,60000	7
19,60833	7
19,61667	8
19,62500	8
19,63333	9
19,64167	9
19,65000	10
19,65833	10
19,66667	11
19,67500	11
19,68333	12
19,69167	12
19,70000	12
19,70833	12
19,71667	12
19,72500	12
19,73333	12
19,74167	12
19,75000	12
19,75833	12
19,76667	13
19,77500	13
19,78333	13
19,79167	13
19,80000	12
19,80833	12
19,81667	12
19,82500	12
19,83333	12
19,84167	12
19,85000	12
19,85833	12
19,86667	11
19,87500	11
19,88333	11
19,89167	11
19,90000	11
19,90833	10
19,91667	10
19,92500	10
19,93333	9
19,94167	9
19,95000	8
19,95833	8
19,96667	7
19,97500	7
19,98333	6
19,99167	5
20,00000	5
20,00833	4
20,01667	3
20,02500	2
20,03333	1
20,04167	0
20,05000	-1
20,05833	-2
20,06667	-3
20,07500	-4
20,08333	-5
20,09167	-6
20,10000	-7
20,10833	-8
20,11667	-9
20,12500	-11
20,13333	-12
20,14167	-13
20,15000	-15
20,15833	-16
20,16667	-18
20,17500	-19
20,18333	-21
20,19167	-23
20,20000	-25
20,20833	-27
20,21667	-28
20,22500	-30
20,23333	-32
20,24167	-34
20,25000	-36
20,25833	-38
20,26667	-39
20,27500	-41
20,28333	-43
20,29167	-45
20,30000	-46
20,30833	-48
20,31667	-49
20,32500	-51
20,33333	-53
20,34167	-54
20,35000	-56
20,35833	-57
20,36667	-57
20,37500	-58
20,38333	-58
20,39167	-58
20,40000	-59
20,40833	-59
20,41667	-60
20,42500	-60
20,43333	-60
20,44167	-61
20,45000	-61
20,45833	-60
20,46667	-60
20,47500	-60
20,48333	-59
20,49167	-58
20,50000	-58
20,50833	-57
20,51667	-56
20,52500	-55
20,53333	-54
20,54167	-53
20,55000	-52
20,55833	-51
20,56667	-50
20,57500	-48
20,58333	-46
20,59167	-45
20,60000	-44
20,60833	-42
20,61667	-41
20,62500	-40
20,63333	-38
20,64167	-37
20,65000	-35
20,65833	-33
20,66667	-31
20,67500	-30
20,68333	-28
20,69167	-27
20,70000	-26
20,70833	-24
20,71667	-23
20,72500	-22
20,73333	-20
20,74167	-19
20,75000	-18
20,75833	-16
20,76667	-15
20,77500	-14
20,78333	-12
20,79167	-10
20,80000	-9
20,80833	-8
20,81667	-7
20,82500	-6
20,83333	-5
20,84167	-4
20,85000	-3
20,85833	-1
20,86667	-0
20,87500	0
20,88333	1
20,89167	2
20,90000	3
20,90833	3
20,91667	4
20,92500	5
20,93333	5
20,94167	6
20,95000	7
20,95833	7
20,96667	8
20,97500	8
20,98333	9
20,99167	9
21,00000	9
21,00833	9
21,01667	10
21,02500	10
21,03333	11
21,04167	11
21,05000	12
21,05833	12
21,06667	13
21,07500	13
21,08333	14
21,09167	14
21,10000	14
21,10833	15
21,11667	15
21,12500	15
21,13333	14
21,14167	14
21,15000	14
21,15833	14
21,16667	14
21,17500	15
21,18333	15
21,19167	15
21,20000	15
21,20833	16
21,21667	16
21,22500	16
21,23333	16
21,24167	16
21,25000	15
21,25833	15
21,26667	16
21,27500	16
21,28333	16
21,29167	17
21,30000	17
21,30833	17
21,31667	17
21,32500	18
21,33333	18
21,34167	17
21,35000	17
21,35833	17
21,36667	17
21,37500	17
21,38333	17
21,39167	17
21,40000	17
21,40833	17
21,41667	17
21,42500	18
21,43333	18
21,44167	18
21,45000	18
21,45833	18
21,46667	18
21,47500	18
21,48333	18
21,49167	18
21,50000	17
21,50833	17
21,51667	16
21,52500	16
21,53333	16
21,54167	16
21,55000	17
21,55833	16
21,56667	17
21,57500	17
21,58333	17
21,59167	17
21,60000	17
21,60833	17
21,61667	17
21,62500	17
21,63333	17
21,64167	18
21,65000	17
21,65833	17
21,66667	17
21,67500	17
21,68333	17
21,69167	17
21,70000	17
21,70833	18
21,71667	18
21,72500	18
21,73333	18
21,74167	17
21,75000	17
21,75833	17
21,76667	17
21,77500	17
21,78333	17
21,79167	17
21,80000	17
21,80833	17
21,81667	17
21,82500	17
21,83333	17
21,84167	17
21,85000	17
21,85833	17
21,86667	18
21,87500	18
21,88333	17
21,89167	17
21,90000	17
21,90833	17
21,91667	17
21,92500	17
21,93333	17
21,94167	18
21,95000	18
21,95833	18
21,96667	18
21,97500	18
21,98333	18
21,99167	17
22,00000	17
22,00833	17
22,01667	17
22,02500	17
22,03333	17
22,04167	17
22,05000	18
22,05833	18
22,06667	18
22,07500	18
22,08333	18
22,09167	17
22,10000	17
22,10833	17
22,11667	17
22,12500	17
22,13333	17
22,14167	17
22,15000	17
22,15833	17
22,16667	17
22,17500	18
22,18333	18
22,19167	18
22,20000	18
22,20833	17
22,21667	17
22,22500	17
22,23333	17
22,24167	17
22,25000	18
22,25833	18
22,26667	18
22,27500	18
22,28333	17
22,29167	17
22,30000	17
22,30833	17
22,31667	17
22,32500	17
22,33333	17
22,34167	17
22,35000	17
22,35833	17
22,36667	17
22,37500	17
22,38333	17
22,39167	17
22,40000	16
22,40833	17
22,41667	17
22,42500	17
22,43333	17
22,44167	17
22,45000	17
22,45833	17
22,46667	17
22,47500	17
22,48333	16
22,49167	16
22,50000	16
22,50833	17
22,51667	17
22,52500	17
22,53333	17
22,54167	17
22,55000	17
22,55833	17
22,56667	17
22,57500	17
22,58333	17
22,59167	17
22,60000	17
22,60833	16
22,61667	17
22,62500	17
22,63333	17
22,64167	17
22,65000	17
22,65833	17
22,66667	17
22,67500	17
22,68333	17
22,69167	17
22,70000	17
22,70833	17
22,71667	17
22,72500	17
22,73333	17
22,74167	17
22,75000	17
22,75833	17
22,76667	17
22,77500	17
22,78333	17
22,79167	17
22,80000	17
22,80833	17
22,81667	17
22,82500	17
22,83333	17
22,84167	16
22,85000	17
22,85833	17
22,86667	17
22,87500	17
22,88333	17
22,89167	17
22,90000	17
22,90833	17
22,91667	17
22,92500	17
22,93333	17
22,94167	17
22,95000	17
22,95833	17
22,96667	18
22,97500	18
22,98333	18
22,99167	18
23,00000	18
23,00833	18
23,01667	18
23,02500	18
23,03333	18
23,04167	17
23,05000	17
23,05833	17
23,06667	17
23,07500	17
23,08333	17
23,09167	17
23,10000	17
23,10833	17
23,11667	17
23,12500	18
23,13333	18
23,14167	18
23,15000	19
23,15833	19
23,16667	19
23,17500	19
23,18333	19
23,19167	19
23,20000	20
23,20833	20
23,21667	21
23,22500	21
23,23333	21
23,24167	21
23,25000	22
23,25833	22
23,26667	23
23,27500	23
23,28333	23
23,29167	24
23,30000	25
23,30833	26
23,31667	26
23,32500	27
23,33333	28
23,34167	29
23,35000	30
23,35833	30
23,36667	31
23,37500	33
23,38333	34
23,39167	35
23,40000	36
23,40833	37
23,41667	39
23,42500	41
23,43333	43
23,44167	45
23,45000	47
23,45833	49
23,46667	52
23,47500	54
23,48333	56
23,49167	59
23,50000	62
23,50833	66
23,51667	69
23,52500	73
23,53333	76
23,54167	80
23,55000	84
23,55833	89
23,56667	94
23,57500	99
23,58333	105
23,59167	111
23,60000	118
23,60833	124
23,61667	132
23,62500	139
23,63333	147
23,64167	156
23,65000	165
23,65833	175
23,66667	186
23,67500	198
23,68333	209
23,69167	222
23,70000	235
23,70833	250
23,71667	264
23,72500	280
23,73333	297
23,74167	315
23,75000	334
23,75833	354
23,76667	374
23,77500	397
23,78333	420
23,79167	445
23,80000	472
23,80833	500
23,81667	528
23,82500	558
23,83333	589
23,84167	622
23,85000	656
23,85833	693
23,86667	731
23,87500	770
23,88333	811
23,89167	854
23,90000	898
23,90833	944
23,91667	993
23,92500	1043
23,93333	1095
23,94167	1148
23,95000	1203
23,95833	1261
23,96667	1320
23,97500	1380
23,98333	1442
23,99167	1505
24,00000	1570
24,00833	1636
24,01667	1703
24,02500	1771
24,03333	1840
24,04167	1909
24,05000	1978
24,05833	2048
24,06667	2117
24,07500	2186
24,08333	2255
24,09167	2323
24,10000	2390
24,10833	2456
24,11667	2520
24,12500	2582
24,13333	2642
24,14167	2699
24,15000	2754
24,15833	2806
24,16667	2855
24,17500	2900
24,18333	2941
24,19167	2977
24,20000	3010
24,20833	3038
24,21667	3061
24,22500	3080
24,23333	3094
24,24167	3103
24,25000	3106
24,25833	3104
24,26667	3097
24,27500	3085
24,28333	3068
24,29167	3046
24,30000	3019
24,30833	2987
24,31667	2951
24,32500	2910
24,33333	2865
24,34167	2816
24,35000	2762
24,35833	2706
24,36667	2646
24,37500	2583
24,38333	2518
24,39167	2450
24,40000	2380
24,40833	2309
24,41667	2235
24,42500	2161
24,43333	2086
24,44167	2010
24,45000	1935
24,45833	1859
24,46667	1783
24,47500	1708
24,48333	1634
24,49167	1560
24,50000	1488
24,50833	1417
24,51667	1348
24,52500	1280
24,53333	1214
24,54167	1149
24,55000	1087
24,55833	1026
24,56667	968
24,57500	912
24,58333	858
24,59167	807
24,60000	758
24,60833	711
24,61667	666
24,62500	624
24,63333	583
24,64167	545
24,65000	510
24,65833	476
24,66667	444
24,67500	414
24,68333	385
24,69167	359
24,70000	334
24,70833	312
24,71667	290
24,72500	270
24,73333	251
24,74167	234
24,75000	218
24,75833	203
24,76667	189
24,77500	176
24,78333	165
24,79167	153
24,80000	143
24,80833	134
24,81667	125
24,82500	117
24,83333	110
24,84167	103
24,85000	97
24,85833	91
24,86667	86
24,87500	81
24,88333	76
24,89167	72
24,90000	68
24,90833	65
24,91667	62
24,92500	59
24,93333	56
24,94167	54
24,95000	52
24,95833	50
24,96667	48
24,97500	46
24,98333	45
24,99167	44
25,00000	43
25,00833	41
25,01667	40
25,02500	39
25,03333	37
25,04167	36
25,05000	35
25,05833	35
25,06667	34
25,07500	33
25,08333	33
25,09167	32
25,10000	31
25,10833	30
25,11667	30
25,12500	30
25,13333	29
25,14167	29
25,15000	29
25,15833	28
25,16667	28
25,17500	28
25,18333	27
25,19167	26
25,20000	26
25,20833	25
25,21667	25
25,22500	25
25,23333	24
25,24167	24
25,25000	23
25,25833	23
25,26667	23
25,27500	23
25,28333	23
25,29167	23
25,30000	23
25,30833	23
25,31667	23
25,32500	23
25,33333	23
25,34167	23
25,35000	23
25,35833	23
25,36667	23
25,37500	23
25,38333	23
25,39167	22
25,40000	22
25,40833	22
25,41667	21
25,42500	21
25,43333	21
25,44167	21
25,45000	21
25,45833	22
25,46667	22
25,47500	22
25,48333	22
25,49167	22
25,50000	22
25,50833	22
25,51667	21
25,52500	21
25,53333	21
25,54167	21
25,55000	21
25,55833	21
25,56667	21
25,57500	21
25,58333	21
25,59167	21
25,60000	21
25,60833	21
25,61667	21
25,62500	21
25,63333	21
25,64167	21
25,65000	21
25,65833	21
25,66667	21
25,67500	21
25,68333	21
25,69167	21
25,70000	21
25,70833	21
25,71667	21
25,72500	21
25,73333	21
25,74167	21
25,75000	21
25,75833	21
25,76667	21
25,77500	21
25,78333	21
25,79167	21
25,80000	21
25,80833	20
25,81667	21
25,82500	21
25,83333	21
25,84167	21
25,85000	21
25,85833	21
25,86667	21
25,87500	21
25,88333	21
25,89167	21
25,90000	21
25,90833	21
25,91667	21
25,92500	21
25,93333	21
25,94167	21
25,95000	21
25,95833	21
25,96667	21
25,97500	22
25,98333	22
25,99167	22
26,00000	22
26,00833	22
26,01667	22
26,02500	22
26,03333	22
26,04167	22
26,05000	22
26,05833	22
26,06667	22
26,07500	22
26,08333	22
26,09167	22
26,10000	22
26,10833	22
26,11667	21
26,12500	21
26,13333	21
26,14167	21
26,15000	21
26,15833	21
26,16667	22
26,17500	22
26,18333	22
26,19167	21
26,20000	21
26,20833	21
26,21667	21
26,22500	21
26,23333	21
26,24167	22
26,25000	22
26,25833	22
26,26667	22
26,27500	22
26,28333	22
26,29167	22
26,30000	22
26,30833	22
26,31667	22
26,32500	22
26,33333	22
26,34167	22
26,35000	22
26,35833	21
26,36667	21
26,37500	21
26,38333	21
26,39167	21
26,40000	21
26,40833	21
26,41667	21
26,42500	21
26,43333	20
26,44167	20
26,45000	20
26,45833	20
26,46667	20
26,47500	20
26,48333	20
26,49167	20
26,50000	20
26,50833	21
26,51667	21
26,52500	21
26,53333	21
26,54167	21
26,55000	21
26,55833	21
26,56667	21
26,57500	21
26,58333	21
26,59167	21
26,60000	21
26,60833	21
26,61667	21
26,62500	21
26,63333	21
26,64167	21
26,65000	21
26,65833	21
26,66667	21
26,67500	21
26,68333	20
26,69167	20
26,70000	20
26,70833	20
26,71667	20
26,72500	20
26,73333	20
26,74167	20
26,75000	21
26,75833	21
26,76667	21
26,77500	21
26,78333	21
26,79167	20
26,80000	20
26,80833	21
26,81667	21
26,82500	21
26,83333	21
26,84167	20
26,85000	20
26,85833	20
26,86667	21
26,87500	20
26,88333	20
26,89167	20
26,90000	20
26,90833	21
26,91667	21
26,92500	21
26,93333	21
26,94167	21
26,95000	22
26,95833	22
26,96667	22
26,97500	22
26,98333	21
26,99167	21
27,00000	21
27,00833	21
27,01667	21
27,02500	21
27,03333	21
27,04167	21
27,05000	21
27,05833	21
27,06667	21
27,07500	21
27,08333	21
27,09167	21
27,10000	22
27,10833	22
27,11667	23
27,12500	23
27,13333	23
27,14167	23
27,15000	22
27,15833	22
27,16667	23
27,17500	23
27,18333	23
27,19167	23
27,20000	23
27,20833	23
27,21667	22
27,22500	22
27,23333	22
27,24167	22
27,25000	22
27,25833	23
27,26667	23
27,27500	23
27,28333	23
27,29167	23
27,30000	23
27,30833	23
27,31667	22
27,32500	22
27,33333	22
27,34167	22
27,35000	21
27,35833	22
27,36667	22
27,37500	22
27,38333	21
27,39167	21
27,40000	21
27,40833	21
27,41667	21
27,42500	22
27,43333	22
27,44167	22
27,45000	22
27,45833	21
27,46667	21
27,47500	21
27,48333	21
27,49167	22
27,50000	22
27,50833	22
27,51667	22
27,52500	22
27,53333	22
27,54167	22
27,55000	22
27,55833	22
27,56667	22
27,57500	22
27,58333	22
27,59167	22
27,60000	23
27,60833	23
27,61667	23
27,62500	23
27,63333	23
27,64167	22
27,65000	22
27,65833	21
27,66667	21
27,67500	22
27,68333	22
27,69167	22
27,70000	23
27,70833	23
27,71667	23
27,72500	23
27,73333	23
27,74167	22
27,75000	22
27,75833	21
27,76667	21
27,77500	21
27,78333	21
27,79167	22
27,80000	22
27,80833	23
27,81667	23
27,82500	23
27,83333	23
27,84167	24
27,85000	24
27,85833	24
27,86667	24
27,87500	24
27,88333	24
27,89167	23
27,90000	23
27,90833	23
27,91667	22
27,92500	22
27,93333	23
27,94167	23
27,95000	23
27,95833	23
27,96667	23
27,97500	22
27,98333	22
27,99167	22
28,00000	22
28,00833	22
28,01667	22
28,02500	22
28,03333	22
28,04167	22
28,05000	22
28,05833	22
28,06667	21
28,07500	21
28,08333	21
28,09167	21
28,10000	21
28,10833	21
28,11667	21
28,12500	21
28,13333	21
28,14167	21
28,15000	21
28,15833	21
28,16667	21
28,17500	21
28,18333	21
28,19167	21
28,20000	21
28,20833	22
28,21667	22
28,22500	22
28,23333	22
28,24167	22
28,25000	22
28,25833	23
28,26667	23
28,27500	23
28,28333	23
28,29167	24
28,30000	24
28,30833	23
28,31667	23
28,32500	23
28,33333	23
28,34167	23
28,35000	23
28,35833	23
28,36667	23
28,37500	23
28,38333	23
28,39167	23
28,40000	23
28,40833	23
28,41667	22
28,42500	23
28,43333	23
28,44167	23
28,45000	23
28,45833	23
28,46667	23
28,47500	23
28,48333	23
28,49167	23
28,50000	23
28,50833	23
28,51667	23
28,52500	23
28,53333	22
28,54167	23
28,55000	23
28,55833	23
28,56667	23
28,57500	23
28,58333	23
28,59167	22
28,60000	22
28,60833	23
28,61667	22
28,62500	22
28,63333	22
28,64167	22
28,65000	23
28,65833	23
28,66667	23
28,67500	23
28,68333	23
28,69167	23
28,70000	24
28,70833	24
28,71667	24
28,72500	24
28,73333	24
28,74167	24
28,75000	24
28,75833	24
28,76667	24
28,77500	23
28,78333	24
28,79167	24
28,80000	24
28,80833	24
28,81667	24
28,82500	24
28,83333	24
28,84167	24
28,85000	23
28,85833	23
28,86667	23
28,87500	24
28,88333	24
28,89167	24
28,90000	24
28,90833	24
28,91667	24
28,92500	25
28,93333	25
28,94167	25
28,95000	24
28,95833	24
28,96667	24
28,97500	24
28,98333	24
28,99167	24
29,00000	24
29,00833	24
29,01667	24
29,02500	23
29,03333	24
29,04167	24
29,05000	24
29,05833	24
29,06667	24
29,07500	24
29,08333	24
29,09167	24
29,10000	24
29,10833	24
29,11667	24
29,12500	24
29,13333	24
29,14167	24
29,15000	24
29,15833	24
29,16667	24
29,17500	23
29,18333	23
29,19167	23
29,20000	24
29,20833	24
29,21667	24
29,22500	24
29,23333	25
29,24167	24
29,25000	24
29,25833	24
29,26667	24
29,27500	24
29,28333	24
29,29167	24
29,30000	24
29,30833	24
29,31667	24
29,32500	25
29,33333	25
29,34167	25
29,35000	25
29,35833	25
29,36667	25
29,37500	24
29,38333	24
29,39167	24
29,40000	24
29,40833	24
29,41667	24
29,42500	24
29,43333	24
29,44167	24
29,45000	24
29,45833	24
29,46667	24
29,47500	24
29,48333	24
29,49167	24
29,50000	24
29,50833	24
29,51667	24
29,52500	24
29,53333	24
29,54167	24
29,55000	24
29,55833	24
29,56667	24
29,57500	24
29,58333	24
29,59167	24
29,60000	24
29,60833	24
29,61667	23
29,62500	23
29,63333	23
29,64167	23
29,65000	24
29,65833	24
29,66667	24
29,67500	24
29,68333	25
29,69167	25
29,70000	25
29,70833	24
29,71667	24
29,72500	24
29,73333	24
29,74167	24
29,75000	24
29,75833	24
29,76667	24
29,77500	24
29,78333	24
29,79167	24
29,80000	24
29,80833	24
29,81667	25
29,82500	25
29,83333	24
29,84167	24
29,85000	24
29,85833	24
29,86667	24
29,87500	24
29,88333	24
29,89167	25
29,90000	25
29,90833	25
29,91667	25
29,92500	25
29,93333	24
29,94167	24
29,95000	24
29,95833	24
29,96667	25
29,97500	25
29,98333	25
29,99167	25
30,00000	25

