R.Time (min)	Intensity
0,00000	-1
0,00833	-1
0,01667	-0
0,02500	-0
0,03333	-0
0,04167	-1
0,05000	-1
0,05833	-1
0,06667	-1
0,07500	-1
0,08333	-1
0,09167	-1
0,10000	-1
0,10833	-0
0,11667	-0
0,12500	-0
0,13333	0
0,14167	0
0,15000	-0
0,15833	-0
0,16667	0
0,17500	0
0,18333	0
0,19167	1
0,20000	1
0,20833	1
0,21667	1
0,22500	1
0,23333	1
0,24167	1
0,25000	1
0,25833	1
0,26667	2
0,27500	2
0,28333	2
0,29167	2
0,30000	2
0,30833	3
0,31667	3
0,32500	3
0,33333	3
0,34167	3
0,35000	3
0,35833	3
0,36667	3
0,37500	2
0,38333	2
0,39167	2
0,40000	1
0,40833	1
0,41667	0
0,42500	-0
0,43333	-0
0,44167	-0
0,45000	-1
0,45833	-1
0,46667	-1
0,47500	-0
0,48333	0
0,49167	0
0,50000	-0
0,50833	-0
0,51667	0
0,52500	0
0,53333	0
0,54167	1
0,55000	1
0,55833	1
0,56667	1
0,57500	1
0,58333	1
0,59167	2
0,60000	2
0,60833	2
0,61667	1
0,62500	2
0,63333	1
0,64167	2
0,65000	2
0,65833	2
0,66667	2
0,67500	2
0,68333	2
0,69167	2
0,70000	1
0,70833	1
0,71667	1
0,72500	1
0,73333	1
0,74167	1
0,75000	1
0,75833	1
0,76667	1
0,77500	1
0,78333	2
0,79167	1
0,80000	1
0,80833	1
0,81667	1
0,82500	1
0,83333	1
0,84167	0
0,85000	0
0,85833	0
0,86667	0
0,87500	1
0,88333	1
0,89167	1
0,90000	1
0,90833	1
0,91667	1
0,92500	1
0,93333	1
0,94167	1
0,95000	1
0,95833	1
0,96667	0
0,97500	0
0,98333	0
0,99167	0
1,00000	0
1,00833	0
1,01667	-0
1,02500	-0
1,03333	-0
1,04167	0
1,05000	0
1,05833	0
1,06667	0
1,07500	0
1,08333	0
1,09167	1
1,10000	1
1,10833	1
1,11667	2
1,12500	1
1,13333	1
1,14167	1
1,15000	1
1,15833	1
1,16667	1
1,17500	1
1,18333	1
1,19167	1
1,20000	1
1,20833	1
1,21667	1
1,22500	1
1,23333	1
1,24167	1
1,25000	1
1,25833	1
1,26667	1
1,27500	1
1,28333	1
1,29167	1
1,30000	1
1,30833	1
1,31667	1
1,32500	1
1,33333	1
1,34167	1
1,35000	2
1,35833	2
1,36667	2
1,37500	2
1,38333	2
1,39167	2
1,40000	2
1,40833	2
1,41667	2
1,42500	2
1,43333	2
1,44167	2
1,45000	2
1,45833	2
1,46667	2
1,47500	2
1,48333	2
1,49167	2
1,50000	2
1,50833	2
1,51667	2
1,52500	2
1,53333	2
1,54167	2
1,55000	2
1,55833	2
1,56667	3
1,57500	3
1,58333	3
1,59167	3
1,60000	3
1,60833	2
1,61667	2
1,62500	2
1,63333	2
1,64167	2
1,65000	2
1,65833	2
1,66667	2
1,67500	2
1,68333	1
1,69167	1
1,70000	1
1,70833	1
1,71667	2
1,72500	2
1,73333	2
1,74167	2
1,75000	2
1,75833	2
1,76667	3
1,77500	3
1,78333	3
1,79167	3
1,80000	3
1,80833	3
1,81667	3
1,82500	3
1,83333	3
1,84167	3
1,85000	3
1,85833	3
1,86667	3
1,87500	3
1,88333	3
1,89167	3
1,90000	3
1,90833	3
1,91667	3
1,92500	2
1,93333	2
1,94167	2
1,95000	3
1,95833	2
1,96667	2
1,97500	2
1,98333	2
1,99167	3
2,00000	2
2,00833	2
2,01667	2
2,02500	2
2,03333	2
2,04167	2
2,05000	2
2,05833	2
2,06667	2
2,07500	2
2,08333	2
2,09167	2
2,10000	2
2,10833	2
2,11667	2
2,12500	2
2,13333	2
2,14167	2
2,15000	2
2,15833	2
2,16667	3
2,17500	3
2,18333	3
2,19167	3
2,20000	3
2,20833	3
2,21667	3
2,22500	3
2,23333	3
2,24167	3
2,25000	3
2,25833	3
2,26667	4
2,27500	4
2,28333	3
2,29167	3
2,30000	3
2,30833	2
2,31667	2
2,32500	2
2,33333	2
2,34167	2
2,35000	2
2,35833	2
2,36667	2
2,37500	2
2,38333	2
2,39167	2
2,40000	3
2,40833	3
2,41667	3
2,42500	3
2,43333	3
2,44167	3
2,45000	2
2,45833	2
2,46667	2
2,47500	1
2,48333	2
2,49167	2
2,50000	2
2,50833	2
2,51667	2
2,52500	1
2,53333	1
2,54167	1
2,55000	1
2,55833	2
2,56667	2
2,57500	2
2,58333	2
2,59167	2
2,60000	2
2,60833	3
2,61667	3
2,62500	3
2,63333	3
2,64167	3
2,65000	3
2,65833	2
2,66667	3
2,67500	3
2,68333	3
2,69167	3
2,70000	3
2,70833	3
2,71667	3
2,72500	4
2,73333	4
2,74167	4
2,75000	4
2,75833	4
2,76667	4
2,77500	4
2,78333	4
2,79167	4
2,80000	4
2,80833	4
2,81667	4
2,82500	4
2,83333	4
2,84167	4
2,85000	4
2,85833	4
2,86667	4
2,87500	4
2,88333	4
2,89167	4
2,90000	4
2,90833	4
2,91667	4
2,92500	4
2,93333	4
2,94167	3
2,95000	3
2,95833	3
2,96667	3
2,97500	2
2,98333	2
2,99167	3
3,00000	3
3,00833	3
3,01667	3
3,02500	3
3,03333	3
3,04167	3
3,05000	3
3,05833	4
3,06667	4
3,07500	3
3,08333	3
3,09167	3
3,10000	3
3,10833	3
3,11667	3
3,12500	3
3,13333	3
3,14167	2
3,15000	2
3,15833	3
3,16667	3
3,17500	3
3,18333	3
3,19167	3
3,20000	4
3,20833	4
3,21667	4
3,22500	3
3,23333	3
3,24167	3
3,25000	3
3,25833	3
3,26667	3
3,27500	3
3,28333	3
3,29167	3
3,30000	3
3,30833	3
3,31667	2
3,32500	2
3,33333	2
3,34167	2
3,35000	3
3,35833	3
3,36667	3
3,37500	3
3,38333	3
3,39167	3
3,40000	3
3,40833	4
3,41667	3
3,42500	3
3,43333	3
3,44167	4
3,45000	4
3,45833	4
3,46667	4
3,47500	4
3,48333	4
3,49167	4
3,50000	4
3,50833	4
3,51667	4
3,52500	3
3,53333	3
3,54167	3
3,55000	3
3,55833	3
3,56667	3
3,57500	4
3,58333	3
3,59167	3
3,60000	3
3,60833	3
3,61667	4
3,62500	4
3,63333	4
3,64167	4
3,65000	4
3,65833	4
3,66667	3
3,67500	3
3,68333	3
3,69167	3
3,70000	3
3,70833	4
3,71667	4
3,72500	4
3,73333	4
3,74167	4
3,75000	4
3,75833	4
3,76667	4
3,77500	4
3,78333	4
3,79167	4
3,80000	4
3,80833	4
3,81667	4
3,82500	4
3,83333	3
3,84167	4
3,85000	4
3,85833	4
3,86667	4
3,87500	4
3,88333	4
3,89167	4
3,90000	4
3,90833	4
3,91667	4
3,92500	4
3,93333	4
3,94167	3
3,95000	4
3,95833	4
3,96667	4
3,97500	4
3,98333	4
3,99167	3
4,00000	3
4,00833	3
4,01667	4
4,02500	4
4,03333	4
4,04167	3
4,05000	3
4,05833	3
4,06667	3
4,07500	3
4,08333	4
4,09167	4
4,10000	4
4,10833	4
4,11667	4
4,12500	4
4,13333	4
4,14167	3
4,15000	3
4,15833	3
4,16667	3
4,17500	3
4,18333	3
4,19167	3
4,20000	4
4,20833	3
4,21667	3
4,22500	3
4,23333	3
4,24167	3
4,25000	2
4,25833	3
4,26667	3
4,27500	3
4,28333	3
4,29167	3
4,30000	3
4,30833	3
4,31667	4
4,32500	4
4,33333	4
4,34167	4
4,35000	3
4,35833	3
4,36667	3
4,37500	3
4,38333	4
4,39167	4
4,40000	4
4,40833	4
4,41667	4
4,42500	4
4,43333	4
4,44167	4
4,45000	4
4,45833	3
4,46667	4
4,47500	4
4,48333	4
4,49167	4
4,50000	4
4,50833	4
4,51667	4
4,52500	4
4,53333	4
4,54167	4
4,55000	5
4,55833	5
4,56667	4
4,57500	4
4,58333	4
4,59167	4
4,60000	4
4,60833	4
4,61667	4
4,62500	4
4,63333	4
4,64167	4
4,65000	4
4,65833	4
4,66667	4
4,67500	4
4,68333	4
4,69167	4
4,70000	4
4,70833	4
4,71667	4
4,72500	4
4,73333	4
4,74167	4
4,75000	4
4,75833	4
4,76667	4
4,77500	5
4,78333	5
4,79167	4
4,80000	4
4,80833	4
4,81667	4
4,82500	4
4,83333	4
4,84167	4
4,85000	4
4,85833	5
4,86667	4
4,87500	4
4,88333	5
4,89167	5
4,90000	5
4,90833	5
4,91667	5
4,92500	5
4,93333	4
4,94167	4
4,95000	3
4,95833	3
4,96667	3
4,97500	3
4,98333	4
4,99167	5
5,00000	5
5,00833	6
5,01667	6
5,02500	6
5,03333	6
5,04167	5
5,05000	5
5,05833	5
5,06667	4
5,07500	4
5,08333	4
5,09167	4
5,10000	5
5,10833	5
5,11667	5
5,12500	5
5,13333	5
5,14167	5
5,15000	5
5,15833	5
5,16667	5
5,17500	5
5,18333	5
5,19167	5
5,20000	5
5,20833	5
5,21667	5
5,22500	5
5,23333	5
5,24167	5
5,25000	5
5,25833	5
5,26667	5
5,27500	5
5,28333	5
5,29167	5
5,30000	5
5,30833	5
5,31667	5
5,32500	5
5,33333	5
5,34167	5
5,35000	5
5,35833	5
5,36667	5
5,37500	5
5,38333	5
5,39167	5
5,40000	5
5,40833	5
5,41667	5
5,42500	5
5,43333	4
5,44167	4
5,45000	4
5,45833	4
5,46667	4
5,47500	5
5,48333	4
5,49167	4
5,50000	4
5,50833	4
5,51667	4
5,52500	4
5,53333	4
5,54167	4
5,55000	5
5,55833	5
5,56667	4
5,57500	5
5,58333	5
5,59167	4
5,60000	5
5,60833	4
5,61667	5
5,62500	5
5,63333	5
5,64167	5
5,65000	5
5,65833	4
5,66667	4
5,67500	4
5,68333	5
5,69167	5
5,70000	5
5,70833	5
5,71667	5
5,72500	5
5,73333	4
5,74167	4
5,75000	4
5,75833	4
5,76667	4
5,77500	5
5,78333	5
5,79167	5
5,80000	5
5,80833	5
5,81667	4
5,82500	4
5,83333	4
5,84167	3
5,85000	3
5,85833	3
5,86667	3
5,87500	3
5,88333	4
5,89167	4
5,90000	4
5,90833	5
5,91667	5
5,92500	5
5,93333	5
5,94167	5
5,95000	6
5,95833	6
5,96667	6
5,97500	5
5,98333	5
5,99167	5
6,00000	5
6,00833	5
6,01667	5
6,02500	5
6,03333	5
6,04167	4
6,05000	4
6,05833	4
6,06667	3
6,07500	3
6,08333	3
6,09167	2
6,10000	2
6,10833	1
6,11667	1
6,12500	1
6,13333	0
6,14167	-1
6,15000	-3
6,15833	-7
6,16667	-13
6,17500	-21
6,18333	-34
6,19167	-54
6,20000	-83
6,20833	-126
6,21667	-188
6,22500	-276
6,23333	-401
6,24167	-572
6,25000	-804
6,25833	-1112
6,26667	-1511
6,27500	-2014
6,28333	-2631
6,29167	-3369
6,30000	-4223
6,30833	-5181
6,31667	-6223
6,32500	-7317
6,33333	-8426
6,34167	-9506
6,35000	-10516
6,35833	-11413
6,36667	-12162
6,37500	-12736
6,38333	-13116
6,39167	-13295
6,40000	-13275
6,40833	-13066
6,41667	-12686
6,42500	-12158
6,43333	-11510
6,44167	-10769
6,45000	-9964
6,45833	-9123
6,46667	-8269
6,47500	-7425
6,48333	-6606
6,49167	-5829
6,50000	-5103
6,50833	-4433
6,51667	-3825
6,52500	-3279
6,53333	-2795
6,54167	-2369
6,55000	-1998
6,55833	-1679
6,56667	-1405
6,57500	-1173
6,58333	-976
6,59167	-811
6,60000	-673
6,60833	-558
6,61667	-463
6,62500	-384
6,63333	-319
6,64167	-266
6,65000	-222
6,65833	-186
6,66667	-156
6,67500	-132
6,68333	-111
6,69167	-95
6,70000	-81
6,70833	-69
6,71667	-60
6,72500	-52
6,73333	-45
6,74167	-40
6,75000	-35
6,75833	-31
6,76667	-28
6,77500	-25
6,78333	-23
6,79167	-20
6,80000	-18
6,80833	-17
6,81667	-15
6,82500	-14
6,83333	-13
6,84167	-12
6,85000	-10
6,85833	-9
6,86667	-8
6,87500	-8
6,88333	-7
6,89167	-7
6,90000	-7
6,90833	-6
6,91667	-6
6,92500	-5
6,93333	-4
6,94167	-4
6,95000	-3
6,95833	-3
6,96667	-3
6,97500	-3
6,98333	-2
6,99167	-2
7,00000	-2
7,00833	-2
7,01667	-2
7,02500	-1
7,03333	-1
7,04167	-1
7,05000	-1
7,05833	-1
7,06667	-1
7,07500	-1
7,08333	-1
7,09167	-1
7,10000	-1
7,10833	-0
7,11667	-0
7,12500	0
7,13333	0
7,14167	1
7,15000	1
7,15833	1
7,16667	1
7,17500	2
7,18333	2
7,19167	2
7,20000	2
7,20833	2
7,21667	2
7,22500	2
7,23333	3
7,24167	3
7,25000	3
7,25833	3
7,26667	2
7,27500	2
7,28333	2
7,29167	2
7,30000	3
7,30833	3
7,31667	3
7,32500	3
7,33333	3
7,34167	3
7,35000	3
7,35833	3
7,36667	3
7,37500	3
7,38333	3
7,39167	3
7,40000	3
7,40833	3
7,41667	3
7,42500	3
7,43333	3
7,44167	3
7,45000	4
7,45833	4
7,46667	4
7,47500	4
7,48333	4
7,49167	4
7,50000	4
7,50833	5
7,51667	5
7,52500	5
7,53333	5
7,54167	5
7,55000	5
7,55833	4
7,56667	4
7,57500	4
7,58333	5
7,59167	5
7,60000	5
7,60833	5
7,61667	5
7,62500	4
7,63333	4
7,64167	4
7,65000	4
7,65833	4
7,66667	4
7,67500	4
7,68333	5
7,69167	5
7,70000	5
7,70833	6
7,71667	5
7,72500	5
7,73333	5
7,74167	5
7,75000	5
7,75833	5
7,76667	5
7,77500	5
7,78333	5
7,79167	5
7,80000	4
7,80833	5
7,81667	5
7,82500	5
7,83333	5
7,84167	5
7,85000	5
7,85833	5
7,86667	5
7,87500	4
7,88333	5
7,89167	5
7,90000	6
7,90833	5
7,91667	5
7,92500	5
7,93333	5
7,94167	6
7,95000	6
7,95833	6
7,96667	6
7,97500	6
7,98333	5
7,99167	5
8,00000	5
8,00833	5
8,01667	6
8,02500	6
8,03333	6
8,04167	6
8,05000	6
8,05833	6
8,06667	6
8,07500	6
8,08333	6
8,09167	6
8,10000	6
8,10833	6
8,11667	6
8,12500	6
8,13333	6
8,14167	6
8,15000	6
8,15833	6
8,16667	6
8,17500	7
8,18333	7
8,19167	6
8,20000	6
8,20833	6
8,21667	6
8,22500	6
8,23333	6
8,24167	5
8,25000	6
8,25833	6
8,26667	6
8,27500	6
8,28333	6
8,29167	6
8,30000	6
8,30833	6
8,31667	6
8,32500	7
8,33333	7
8,34167	7
8,35000	7
8,35833	7
8,36667	7
8,37500	7
8,38333	6
8,39167	6
8,40000	6
8,40833	6
8,41667	6
8,42500	6
8,43333	6
8,44167	6
8,45000	6
8,45833	6
8,46667	6
8,47500	6
8,48333	6
8,49167	5
8,50000	5
8,50833	5
8,51667	5
8,52500	5
8,53333	5
8,54167	5
8,55000	5
8,55833	5
8,56667	6
8,57500	6
8,58333	6
8,59167	6
8,60000	7
8,60833	6
8,61667	6
8,62500	6
8,63333	5
8,64167	5
8,65000	5
8,65833	5
8,66667	5
8,67500	5
8,68333	5
8,69167	5
8,70000	5
8,70833	5
8,71667	5
8,72500	5
8,73333	5
8,74167	4
8,75000	4
8,75833	4
8,76667	5
8,77500	5
8,78333	5
8,79167	6
8,80000	6
8,80833	6
8,81667	6
8,82500	7
8,83333	7
8,84167	7
8,85000	8
8,85833	8
8,86667	9
8,87500	10
8,88333	11
8,89167	13
8,90000	15
8,90833	17
8,91667	20
8,92500	24
8,93333	28
8,94167	33
8,95000	39
8,95833	45
8,96667	52
8,97500	61
8,98333	70
8,99167	81
9,00000	93
9,00833	105
9,01667	118
9,02500	132
9,03333	145
9,04167	159
9,05000	172
9,05833	184
9,06667	195
9,07500	205
9,08333	214
9,09167	221
9,10000	226
9,10833	229
9,11667	230
9,12500	229
9,13333	225
9,14167	220
9,15000	213
9,15833	205
9,16667	196
9,17500	185
9,18333	174
9,19167	163
9,20000	151
9,20833	139
9,21667	127
9,22500	116
9,23333	105
9,24167	95
9,25000	85
9,25833	76
9,26667	68
9,27500	60
9,28333	54
9,29167	48
9,30000	42
9,30833	37
9,31667	33
9,32500	30
9,33333	27
9,34167	24
9,35000	22
9,35833	20
9,36667	18
9,37500	16
9,38333	14
9,39167	13
9,40000	12
9,40833	11
9,41667	11
9,42500	10
9,43333	10
9,44167	10
9,45000	9
9,45833	9
9,46667	9
9,47500	9
9,48333	8
9,49167	8
9,50000	8
9,50833	8
9,51667	8
9,52500	8
9,53333	8
9,54167	7
9,55000	7
9,55833	7
9,56667	7
9,57500	7
9,58333	6
9,59167	6
9,60000	6
9,60833	6
9,61667	6
9,62500	6
9,63333	6
9,64167	6
9,65000	6
9,65833	6
9,66667	6
9,67500	6
9,68333	6
9,69167	6
9,70000	6
9,70833	6
9,71667	6
9,72500	6
9,73333	6
9,74167	6
9,75000	6
9,75833	6
9,76667	7
9,77500	7
9,78333	7
9,79167	7
9,80000	7
9,80833	7
9,81667	7
9,82500	6
9,83333	6
9,84167	6
9,85000	6
9,85833	6
9,86667	6
9,87500	7
9,88333	7
9,89167	7
9,90000	6
9,90833	6
9,91667	7
9,92500	7
9,93333	8
9,94167	8
9,95000	8
9,95833	8
9,96667	8
9,97500	8
9,98333	8
9,99167	7
10,00000	7
10,00833	7
10,01667	7
10,02500	7
10,03333	7
10,04167	7
10,05000	7
10,05833	7
10,06667	7
10,07500	6
10,08333	6
10,09167	6
10,10000	6
10,10833	6
10,11667	6
10,12500	6
10,13333	6
10,14167	6
10,15000	6
10,15833	6
10,16667	6
10,17500	5
10,18333	5
10,19167	5
10,20000	5
10,20833	6
10,21667	6
10,22500	6
10,23333	6
10,24167	6
10,25000	6
10,25833	6
10,26667	6
10,27500	6
10,28333	7
10,29167	7
10,30000	6
10,30833	6
10,31667	6
10,32500	6
10,33333	6
10,34167	6
10,35000	6
10,35833	6
10,36667	6
10,37500	6
10,38333	6
10,39167	6
10,40000	6
10,40833	6
10,41667	6
10,42500	6
10,43333	5
10,44167	5
10,45000	5
10,45833	5
10,46667	5
10,47500	6
10,48333	6
10,49167	6
10,50000	6
10,50833	6
10,51667	7
10,52500	7
10,53333	7
10,54167	7
10,55000	6
10,55833	6
10,56667	6
10,57500	7
10,58333	7
10,59167	7
10,60000	7
10,60833	6
10,61667	6
10,62500	7
10,63333	7
10,64167	7
10,65000	7
10,65833	7
10,66667	7
10,67500	6
10,68333	7
10,69167	7
10,70000	7
10,70833	7
10,71667	7
10,72500	7
10,73333	7
10,74167	7
10,75000	7
10,75833	7
10,76667	7
10,77500	8
10,78333	8
10,79167	8
10,80000	8
10,80833	7
10,81667	7
10,82500	8
10,83333	8
10,84167	8
10,85000	8
10,85833	8
10,86667	7
10,87500	7
10,88333	7
10,89167	7
10,90000	6
10,90833	6
10,91667	7
10,92500	7
10,93333	7
10,94167	7
10,95000	7
10,95833	7
10,96667	8
10,97500	8
10,98333	8
10,99167	8
11,00000	7
11,00833	7
11,01667	7
11,02500	7
11,03333	7
11,04167	7
11,05000	8
11,05833	8
11,06667	9
11,07500	9
11,08333	9
11,09167	8
11,10000	8
11,10833	8
11,11667	8
11,12500	8
11,13333	8
11,14167	8
11,15000	8
11,15833	9
11,16667	9
11,17500	8
11,18333	8
11,19167	8
11,20000	8
11,20833	8
11,21667	8
11,22500	8
11,23333	8
11,24167	8
11,25000	8
11,25833	8
11,26667	8
11,27500	8
11,28333	8
11,29167	8
11,30000	8
11,30833	8
11,31667	8
11,32500	8
11,33333	9
11,34167	9
11,35000	9
11,35833	9
11,36667	9
11,37500	9
11,38333	9
11,39167	9
11,40000	10
11,40833	10
11,41667	10
11,42500	10
11,43333	10
11,44167	10
11,45000	10
11,45833	9
11,46667	9
11,47500	9
11,48333	9
11,49167	9
11,50000	9
11,50833	9
11,51667	9
11,52500	9
11,53333	9
11,54167	9
11,55000	9
11,55833	8
11,56667	8
11,57500	8
11,58333	8
11,59167	9
11,60000	9
11,60833	8
11,61667	9
11,62500	9
11,63333	8
11,64167	9
11,65000	9
11,65833	9
11,66667	9
11,67500	9
11,68333	9
11,69167	9
11,70000	10
11,70833	10
11,71667	10
11,72500	10
11,73333	10
11,74167	10
11,75000	10
11,75833	9
11,76667	9
11,77500	9
11,78333	9
11,79167	9
11,80000	9
11,80833	9
11,81667	9
11,82500	9
11,83333	9
11,84167	9
11,85000	9
11,85833	9
11,86667	9
11,87500	9
11,88333	9
11,89167	9
11,90000	9
11,90833	9
11,91667	9
11,92500	9
11,93333	9
11,94167	10
11,95000	10
11,95833	10
11,96667	10
11,97500	10
11,98333	10
11,99167	10
12,00000	10
12,00833	10
12,01667	10
12,02500	10
12,03333	10
12,04167	10
12,05000	10
12,05833	9
12,06667	9
12,07500	9
12,08333	10
12,09167	10
12,10000	10
12,10833	10
12,11667	9
12,12500	9
12,13333	9
12,14167	9
12,15000	9
12,15833	9
12,16667	9
12,17500	8
12,18333	8
12,19167	8
12,20000	7
12,20833	7
12,21667	8
12,22500	8
12,23333	8
12,24167	8
12,25000	9
12,25833	9
12,26667	8
12,27500	8
12,28333	8
12,29167	8
12,30000	8
12,30833	8
12,31667	8
12,32500	8
12,33333	8
12,34167	8
12,35000	8
12,35833	8
12,36667	8
12,37500	8
12,38333	8
12,39167	9
12,40000	9
12,40833	9
12,41667	10
12,42500	10
12,43333	10
12,44167	10
12,45000	9
12,45833	9
12,46667	9
12,47500	9
12,48333	9
12,49167	8
12,50000	8
12,50833	8
12,51667	8
12,52500	8
12,53333	8
12,54167	8
12,55000	8
12,55833	8
12,56667	8
12,57500	8
12,58333	7
12,59167	8
12,60000	8
12,60833	7
12,61667	8
12,62500	8
12,63333	8
12,64167	8
12,65000	8
12,65833	9
12,66667	9
12,67500	9
12,68333	9
12,69167	9
12,70000	9
12,70833	9
12,71667	9
12,72500	9
12,73333	9
12,74167	9
12,75000	9
12,75833	9
12,76667	9
12,77500	9
12,78333	9
12,79167	9
12,80000	9
12,80833	9
12,81667	9
12,82500	9
12,83333	9
12,84167	9
12,85000	9
12,85833	9
12,86667	10
12,87500	10
12,88333	10
12,89167	10
12,90000	10
12,90833	11
12,91667	11
12,92500	11
12,93333	10
12,94167	10
12,95000	10
12,95833	10
12,96667	9
12,97500	9
12,98333	9
12,99167	9
13,00000	9
13,00833	9
13,01667	9
13,02500	9
13,03333	9
13,04167	9
13,05000	9
13,05833	8
13,06667	8
13,07500	9
13,08333	9
13,09167	9
13,10000	9
13,10833	10
13,11667	10
13,12500	9
13,13333	9
13,14167	9
13,15000	9
13,15833	9
13,16667	9
13,17500	9
13,18333	9
13,19167	9
13,20000	9
13,20833	9
13,21667	9
13,22500	9
13,23333	9
13,24167	9
13,25000	9
13,25833	9
13,26667	9
13,27500	9
13,28333	9
13,29167	9
13,30000	9
13,30833	9
13,31667	9
13,32500	10
13,33333	10
13,34167	10
13,35000	10
13,35833	10
13,36667	10
13,37500	9
13,38333	9
13,39167	9
13,40000	9
13,40833	9
13,41667	9
13,42500	9
13,43333	10
13,44167	10
13,45000	10
13,45833	10
13,46667	10
13,47500	10
13,48333	10
13,49167	10
13,50000	10
13,50833	10
13,51667	10
13,52500	10
13,53333	11
13,54167	11
13,55000	11
13,55833	11
13,56667	11
13,57500	11
13,58333	10
13,59167	10
13,60000	11
13,60833	11
13,61667	12
13,62500	12
13,63333	12
13,64167	12
13,65000	13
13,65833	13
13,66667	13
13,67500	13
13,68333	13
13,69167	13
13,70000	13
13,70833	13
13,71667	13
13,72500	13
13,73333	12
13,74167	12
13,75000	12
13,75833	12
13,76667	12
13,77500	12
13,78333	12
13,79167	13
13,80000	13
13,80833	13
13,81667	13
13,82500	12
13,83333	11
13,84167	11
13,85000	11
13,85833	11
13,86667	11
13,87500	11
13,88333	12
13,89167	12
13,90000	12
13,90833	11
13,91667	11
13,92500	11
13,93333	12
13,94167	12
13,95000	12
13,95833	13
13,96667	12
13,97500	12
13,98333	12
13,99167	12
14,00000	11
14,00833	11
14,01667	11
14,02500	11
14,03333	11
14,04167	11
14,05000	12
14,05833	12
14,06667	12
14,07500	11
14,08333	11
14,09167	11
14,10000	12
14,10833	12
14,11667	13
14,12500	13
14,13333	13
14,14167	14
14,15000	14
14,15833	14
14,16667	15
14,17500	15
14,18333	16
14,19167	16
14,20000	17
14,20833	17
14,21667	17
14,22500	18
14,23333	18
14,24167	19
14,25000	19
14,25833	20
14,26667	20
14,27500	20
14,28333	20
14,29167	20
14,30000	20
14,30833	20
14,31667	20
14,32500	21
14,33333	21
14,34167	21
14,35000	21
14,35833	21
14,36667	21
14,37500	21
14,38333	21
14,39167	20
14,40000	20
14,40833	20
14,41667	19
14,42500	19
14,43333	18
14,44167	18
14,45000	17
14,45833	17
14,46667	16
14,47500	16
14,48333	15
14,49167	15
14,50000	15
14,50833	14
14,51667	14
14,52500	13
14,53333	13
14,54167	12
14,55000	12
14,55833	12
14,56667	11
14,57500	11
14,58333	10
14,59167	10
14,60000	10
14,60833	10
14,61667	10
14,62500	10
14,63333	10
14,64167	10
14,65000	10
14,65833	10
14,66667	10
14,67500	10
14,68333	10
14,69167	9
14,70000	9
14,70833	9
14,71667	9
14,72500	9
14,73333	9
14,74167	9
14,75000	9
14,75833	9
14,76667	9
14,77500	10
14,78333	10
14,79167	10
14,80000	10
14,80833	10
14,81667	10
14,82500	10
14,83333	10
14,84167	10
14,85000	9
14,85833	9
14,86667	10
14,87500	10
14,88333	10
14,89167	10
14,90000	10
14,90833	10
14,91667	10
14,92500	10
14,93333	10
14,94167	10
14,95000	10
14,95833	10
14,96667	9
14,97500	10
14,98333	10
14,99167	10
15,00000	10
15,00833	10
15,01667	10
15,02500	10
15,03333	10
15,04167	10
15,05000	10
15,05833	10
15,06667	10
15,07500	10
15,08333	10
15,09167	10
15,10000	10
15,10833	10
15,11667	10
15,12500	10
15,13333	10
15,14167	10
15,15000	11
15,15833	11
15,16667	11
15,17500	10
15,18333	10
15,19167	10
15,20000	10
15,20833	10
15,21667	10
15,22500	10
15,23333	10
15,24167	10
15,25000	10
15,25833	10
15,26667	10
15,27500	10
15,28333	10
15,29167	10
15,30000	10
15,30833	10
15,31667	10
15,32500	11
15,33333	10
15,34167	10
15,35000	10
15,35833	10
15,36667	10
15,37500	10
15,38333	10
15,39167	10
15,40000	9
15,40833	9
15,41667	9
15,42500	9
15,43333	9
15,44167	10
15,45000	10
15,45833	10
15,46667	10
15,47500	11
15,48333	11
15,49167	11
15,50000	11
15,50833	11
15,51667	11
15,52500	11
15,53333	11
15,54167	11
15,55000	11
15,55833	11
15,56667	11
15,57500	11
15,58333	11
15,59167	11
15,60000	11
15,60833	11
15,61667	11
15,62500	10
15,63333	10
15,64167	10
15,65000	9
15,65833	9
15,66667	9
15,67500	9
15,68333	10
15,69167	10
15,70000	10
15,70833	10
15,71667	11
15,72500	11
15,73333	11
15,74167	11
15,75000	11
15,75833	11
15,76667	11
15,77500	11
15,78333	11
15,79167	11
15,80000	11
15,80833	11
15,81667	11
15,82500	11
15,83333	12
15,84167	12
15,85000	12
15,85833	12
15,86667	12
15,87500	11
15,88333	11
15,89167	11
15,90000	11
15,90833	11
15,91667	11
15,92500	11
15,93333	11
15,94167	11
15,95000	11
15,95833	11
15,96667	11
15,97500	11
15,98333	11
15,99167	11
16,00000	11
16,00833	11
16,01667	12
16,02500	12
16,03333	12
16,04167	13
16,05000	12
16,05833	12
16,06667	12
16,07500	11
16,08333	11
16,09167	11
16,10000	11
16,10833	11
16,11667	11
16,12500	12
16,13333	12
16,14167	12
16,15000	12
16,15833	12
16,16667	12
16,17500	12
16,18333	12
16,19167	12
16,20000	12
16,20833	11
16,21667	11
16,22500	11
16,23333	11
16,24167	11
16,25000	12
16,25833	12
16,26667	12
16,27500	12
16,28333	12
16,29167	12
16,30000	12
16,30833	12
16,31667	12
16,32500	11
16,33333	11
16,34167	11
16,35000	11
16,35833	11
16,36667	11
16,37500	11
16,38333	11
16,39167	11
16,40000	11
16,40833	11
16,41667	11
16,42500	11
16,43333	11
16,44167	11
16,45000	11
16,45833	11
16,46667	11
16,47500	11
16,48333	11
16,49167	11
16,50000	11
16,50833	11
16,51667	11
16,52500	11
16,53333	11
16,54167	11
16,55000	11
16,55833	11
16,56667	11
16,57500	11
16,58333	11
16,59167	11
16,60000	11
16,60833	11
16,61667	11
16,62500	10
16,63333	10
16,64167	10
16,65000	11
16,65833	11
16,66667	11
16,67500	11
16,68333	11
16,69167	11
16,70000	11
16,70833	11
16,71667	12
16,72500	12
16,73333	12
16,74167	12
16,75000	12
16,75833	13
16,76667	13
16,77500	12
16,78333	12
16,79167	11
16,80000	11
16,80833	11
16,81667	11
16,82500	11
16,83333	11
16,84167	11
16,85000	11
16,85833	10
16,86667	10
16,87500	10
16,88333	10
16,89167	10
16,90000	10
16,90833	10
16,91667	10
16,92500	11
16,93333	11
16,94167	11
16,95000	11
16,95833	11
16,96667	11
16,97500	11
16,98333	11
16,99167	10
17,00000	10
17,00833	10
17,01667	10
17,02500	10
17,03333	10
17,04167	10
17,05000	10
17,05833	11
17,06667	11
17,07500	11
17,08333	11
17,09167	11
17,10000	11
17,10833	11
17,11667	11
17,12500	10
17,13333	10
17,14167	10
17,15000	10
17,15833	10
17,16667	10
17,17500	10
17,18333	10
17,19167	10
17,20000	10
17,20833	10
17,21667	10
17,22500	10
17,23333	10
17,24167	11
17,25000	11
17,25833	11
17,26667	11
17,27500	11
17,28333	11
17,29167	11
17,30000	11
17,30833	11
17,31667	11
17,32500	11
17,33333	12
17,34167	12
17,35000	11
17,35833	11
17,36667	11
17,37500	11
17,38333	12
17,39167	12
17,40000	11
17,40833	11
17,41667	11
17,42500	11
17,43333	11
17,44167	11
17,45000	11
17,45833	11
17,46667	11
17,47500	10
17,48333	10
17,49167	10
17,50000	11
17,50833	11
17,51667	11
17,52500	11
17,53333	11
17,54167	11
17,55000	11
17,55833	11
17,56667	11
17,57500	11
17,58333	11
17,59167	11
17,60000	11
17,60833	11
17,61667	11
17,62500	11
17,63333	11
17,64167	11
17,65000	11
17,65833	11
17,66667	11
17,67500	11
17,68333	11
17,69167	12
17,70000	12
17,70833	12
17,71667	12
17,72500	12
17,73333	12
17,74167	12
17,75000	12
17,75833	11
17,76667	11
17,77500	12
17,78333	12
17,79167	12
17,80000	12
17,80833	12
17,81667	12
17,82500	12
17,83333	12
17,84167	12
17,85000	12
17,85833	12
17,86667	12
17,87500	12
17,88333	12
17,89167	12
17,90000	12
17,90833	12
17,91667	12
17,92500	12
17,93333	12
17,94167	12
17,95000	12
17,95833	11
17,96667	11
17,97500	12
17,98333	12
17,99167	12
18,00000	12
18,00833	12
18,01667	12
18,02500	11
18,03333	11
18,04167	11
18,05000	11
18,05833	11
18,06667	11
18,07500	12
18,08333	12
18,09167	12
18,10000	12
18,10833	12
18,11667	12
18,12500	12
18,13333	12
18,14167	11
18,15000	11
18,15833	12
18,16667	12
18,17500	12
18,18333	12
18,19167	12
18,20000	13
18,20833	13
18,21667	12
18,22500	12
18,23333	12
18,24167	12
18,25000	12
18,25833	12
18,26667	12
18,27500	13
18,28333	13
18,29167	13
18,30000	13
18,30833	13
18,31667	13
18,32500	13
18,33333	13
18,34167	13
18,35000	13
18,35833	13
18,36667	13
18,37500	13
18,38333	13
18,39167	12
18,40000	12
18,40833	12
18,41667	12
18,42500	12
18,43333	12
18,44167	12
18,45000	12
18,45833	12
18,46667	12
18,47500	12
18,48333	12
18,49167	12
18,50000	12
18,50833	12
18,51667	12
18,52500	12
18,53333	12
18,54167	12
18,55000	12
18,55833	12
18,56667	12
18,57500	12
18,58333	12
18,59167	12
18,60000	12
18,60833	12
18,61667	11
18,62500	11
18,63333	11
18,64167	10
18,65000	10
18,65833	10
18,66667	9
18,67500	9
18,68333	9
18,69167	8
18,70000	8
18,70833	8
18,71667	7
18,72500	7
18,73333	6
18,74167	5
18,75000	4
18,75833	3
18,76667	2
18,77500	1
18,78333	-0
18,79167	-1
18,80000	-2
18,80833	-3
18,81667	-4
18,82500	-6
18,83333	-8
18,84167	-9
18,85000	-11
18,85833	-12
18,86667	-14
18,87500	-16
18,88333	-18
18,89167	-20
18,90000	-22
18,90833	-25
18,91667	-27
18,92500	-30
18,93333	-32
18,94167	-35
18,95000	-37
18,95833	-40
18,96667	-43
18,97500	-45
18,98333	-48
18,99167	-50
19,00000	-53
19,00833	-55
19,01667	-58
19,02500	-60
19,03333	-63
19,04167	-66
19,05000	-68
19,05833	-70
19,06667	-72
19,07500	-74
19,08333	-76
19,09167	-78
19,10000	-79
19,10833	-80
19,11667	-82
19,12500	-83
19,13333	-84
19,14167	-84
19,15000	-85
19,15833	-85
19,16667	-85
19,17500	-84
19,18333	-84
19,19167	-83
19,20000	-81
19,20833	-80
19,21667	-79
19,22500	-78
19,23333	-75
19,24167	-73
19,25000	-71
19,25833	-68
19,26667	-65
19,27500	-62
19,28333	-59
19,29167	-56
19,30000	-53
19,30833	-51
19,31667	-48
19,32500	-45
19,33333	-41
19,34167	-38
19,35000	-34
19,35833	-31
19,36667	-28
19,37500	-25
19,38333	-23
19,39167	-20
19,40000	-17
19,40833	-15
19,41667	-12
19,42500	-10
19,43333	-8
19,44167	-6
19,45000	-4
19,45833	-2
19,46667	-1
19,47500	1
19,48333	2
19,49167	3
19,50000	4
19,50833	5
19,51667	6
19,52500	7
19,53333	7
19,54167	7
19,55000	7
19,55833	7
19,56667	7
19,57500	7
19,58333	6
19,59167	5
19,60000	4
19,60833	3
19,61667	2
19,62500	1
19,63333	-0
19,64167	-1
19,65000	-2
19,65833	-3
19,66667	-5
19,67500	-6
19,68333	-7
19,69167	-8
19,70000	-10
19,70833	-11
19,71667	-12
19,72500	-14
19,73333	-15
19,74167	-17
19,75000	-18
19,75833	-20
19,76667	-21
19,77500	-22
19,78333	-23
19,79167	-24
19,80000	-24
19,80833	-25
19,81667	-26
19,82500	-27
19,83333	-28
19,84167	-29
19,85000	-29
19,85833	-30
19,86667	-31
19,87500	-31
19,88333	-31
19,89167	-32
19,90000	-32
19,90833	-32
19,91667	-31
19,92500	-31
19,93333	-31
19,94167	-31
19,95000	-31
19,95833	-31
19,96667	-30
19,97500	-30
19,98333	-30
19,99167	-29
20,00000	-29
20,00833	-29
20,01667	-29
20,02500	-28
20,03333	-28
20,04167	-27
20,05000	-26
20,05833	-25
20,06667	-25
20,07500	-24
20,08333	-24
20,09167	-23
20,10000	-23
20,10833	-23
20,11667	-23
20,12500	-23
20,13333	-22
20,14167	-22
20,15000	-22
20,15833	-22
20,16667	-22
20,17500	-22
20,18333	-22
20,19167	-23
20,20000	-23
20,20833	-24
20,21667	-24
20,22500	-25
20,23333	-26
20,24167	-27
20,25000	-27
20,25833	-28
20,26667	-29
20,27500	-31
20,28333	-32
20,29167	-33
20,30000	-33
20,30833	-34
20,31667	-34
20,32500	-35
20,33333	-36
20,34167	-37
20,35000	-38
20,35833	-39
20,36667	-40
20,37500	-40
20,38333	-41
20,39167	-42
20,40000	-43
20,40833	-43
20,41667	-44
20,42500	-44
20,43333	-44
20,44167	-44
20,45000	-45
20,45833	-45
20,46667	-45
20,47500	-45
20,48333	-45
20,49167	-45
20,50000	-46
20,50833	-45
20,51667	-45
20,52500	-44
20,53333	-44
20,54167	-44
20,55000	-43
20,55833	-43
20,56667	-42
20,57500	-42
20,58333	-41
20,59167	-40
20,60000	-40
20,60833	-39
20,61667	-38
20,62500	-37
20,63333	-36
20,64167	-35
20,65000	-34
20,65833	-33
20,66667	-32
20,67500	-31
20,68333	-30
20,69167	-29
20,70000	-28
20,70833	-27
20,71667	-26
20,72500	-24
20,73333	-23
20,74167	-22
20,75000	-21
20,75833	-20
20,76667	-19
20,77500	-18
20,78333	-17
20,79167	-15
20,80000	-14
20,80833	-13
20,81667	-12
20,82500	-11
20,83333	-10
20,84167	-8
20,85000	-7
20,85833	-6
20,86667	-6
20,87500	-5
20,88333	-4
20,89167	-4
20,90000	-3
20,90833	-2
20,91667	-1
20,92500	1
20,93333	2
20,94167	2
20,95000	3
20,95833	4
20,96667	4
20,97500	5
20,98333	5
20,99167	5
21,00000	6
21,00833	6
21,01667	7
21,02500	7
21,03333	8
21,04167	9
21,05000	9
21,05833	9
21,06667	9
21,07500	9
21,08333	9
21,09167	9
21,10000	10
21,10833	10
21,11667	10
21,12500	10
21,13333	10
21,14167	10
21,15000	10
21,15833	11
21,16667	11
21,17500	11
21,18333	11
21,19167	11
21,20000	11
21,20833	11
21,21667	11
21,22500	12
21,23333	12
21,24167	12
21,25000	12
21,25833	12
21,26667	13
21,27500	13
21,28333	13
21,29167	12
21,30000	12
21,30833	12
21,31667	12
21,32500	12
21,33333	12
21,34167	13
21,35000	13
21,35833	13
21,36667	14
21,37500	14
21,38333	14
21,39167	14
21,40000	14
21,40833	13
21,41667	13
21,42500	13
21,43333	13
21,44167	13
21,45000	13
21,45833	13
21,46667	13
21,47500	13
21,48333	13
21,49167	13
21,50000	14
21,50833	14
21,51667	14
21,52500	14
21,53333	14
21,54167	14
21,55000	14
21,55833	14
21,56667	14
21,57500	14
21,58333	14
21,59167	14
21,60000	14
21,60833	14
21,61667	14
21,62500	14
21,63333	14
21,64167	14
21,65000	14
21,65833	14
21,66667	14
21,67500	15
21,68333	15
21,69167	15
21,70000	15
21,70833	15
21,71667	15
21,72500	15
21,73333	15
21,74167	15
21,75000	15
21,75833	15
21,76667	15
21,77500	15
21,78333	15
21,79167	15
21,80000	15
21,80833	16
21,81667	16
21,82500	16
21,83333	16
21,84167	16
21,85000	16
21,85833	16
21,86667	16
21,87500	16
21,88333	16
21,89167	16
21,90000	16
21,90833	16
21,91667	16
21,92500	16
21,93333	16
21,94167	16
21,95000	15
21,95833	15
21,96667	15
21,97500	15
21,98333	16
21,99167	16
22,00000	16
22,00833	16
22,01667	16
22,02500	15
22,03333	15
22,04167	14
22,05000	14
22,05833	14
22,06667	14
22,07500	14
22,08333	14
22,09167	14
22,10000	14
22,10833	14
22,11667	14
22,12500	14
22,13333	14
22,14167	14
22,15000	14
22,15833	15
22,16667	15
22,17500	15
22,18333	15
22,19167	15
22,20000	15
22,20833	15
22,21667	15
22,22500	16
22,23333	16
22,24167	16
22,25000	16
22,25833	16
22,26667	16
22,27500	16
22,28333	16
22,29167	16
22,30000	16
22,30833	16
22,31667	16
22,32500	15
22,33333	15
22,34167	15
22,35000	15
22,35833	16
22,36667	16
22,37500	16
22,38333	16
22,39167	16
22,40000	16
22,40833	16
22,41667	17
22,42500	17
22,43333	17
22,44167	17
22,45000	18
22,45833	18
22,46667	18
22,47500	18
22,48333	17
22,49167	17
22,50000	17
22,50833	17
22,51667	17
22,52500	17
22,53333	17
22,54167	17
22,55000	17
22,55833	17
22,56667	17
22,57500	17
22,58333	17
22,59167	17
22,60000	17
22,60833	17
22,61667	17
22,62500	17
22,63333	17
22,64167	17
22,65000	17
22,65833	17
22,66667	17
22,67500	17
22,68333	17
22,69167	17
22,70000	17
22,70833	17
22,71667	18
22,72500	18
22,73333	18
22,74167	18
22,75000	18
22,75833	17
22,76667	17
22,77500	17
22,78333	17
22,79167	17
22,80000	17
22,80833	18
22,81667	18
22,82500	18
22,83333	18
22,84167	19
22,85000	18
22,85833	18
22,86667	18
22,87500	18
22,88333	18
22,89167	18
22,90000	18
22,90833	18
22,91667	18
22,92500	18
22,93333	18
22,94167	18
22,95000	18
22,95833	18
22,96667	18
22,97500	17
22,98333	17
22,99167	17
23,00000	17
23,00833	17
23,01667	17
23,02500	17
23,03333	17
23,04167	18
23,05000	18
23,05833	18
23,06667	19
23,07500	19
23,08333	19
23,09167	19
23,10000	19
23,10833	18
23,11667	18
23,12500	18
23,13333	18
23,14167	19
23,15000	19
23,15833	19
23,16667	19
23,17500	20
23,18333	20
23,19167	20
23,20000	20
23,20833	20
23,21667	20
23,22500	20
23,23333	21
23,24167	21
23,25000	22
23,25833	23
23,26667	24
23,27500	24
23,28333	24
23,29167	24
23,30000	25
23,30833	26
23,31667	26
23,32500	27
23,33333	28
23,34167	29
23,35000	30
23,35833	31
23,36667	32
23,37500	33
23,38333	34
23,39167	35
23,40000	37
23,40833	38
23,41667	39
23,42500	41
23,43333	42
23,44167	44
23,45000	46
23,45833	48
23,46667	50
23,47500	53
23,48333	55
23,49167	58
23,50000	61
23,50833	64
23,51667	67
23,52500	70
23,53333	74
23,54167	78
23,55000	83
23,55833	87
23,56667	92
23,57500	97
23,58333	102
23,59167	108
23,60000	114
23,60833	121
23,61667	128
23,62500	136
23,63333	143
23,64167	151
23,65000	160
23,65833	170
23,66667	180
23,67500	190
23,68333	202
23,69167	214
23,70000	226
23,70833	239
23,71667	254
23,72500	269
23,73333	284
23,74167	301
23,75000	318
23,75833	336
23,76667	356
23,77500	376
23,78333	398
23,79167	421
23,80000	445
23,80833	471
23,81667	498
23,82500	526
23,83333	555
23,84167	586
23,85000	617
23,85833	650
23,86667	685
23,87500	722
23,88333	760
23,89167	800
23,90000	841
23,90833	884
23,91667	929
23,92500	975
23,93333	1023
23,94167	1072
23,95000	1123
23,95833	1176
23,96667	1230
23,97500	1285
23,98333	1341
23,99167	1399
24,00000	1458
24,00833	1519
24,01667	1580
24,02500	1642
24,03333	1705
24,04167	1768
24,05000	1832
24,05833	1895
24,06667	1959
24,07500	2022
24,08333	2085
24,09167	2147
24,10000	2208
24,10833	2268
24,11667	2326
24,12500	2383
24,13333	2437
24,14167	2489
24,15000	2538
24,15833	2584
24,16667	2628
24,17500	2668
24,18333	2704
24,19167	2737
24,20000	2766
24,20833	2790
24,21667	2811
24,22500	2827
24,23333	2838
24,24167	2845
24,25000	2846
24,25833	2844
24,26667	2836
24,27500	2824
24,28333	2807
24,29167	2785
24,30000	2759
24,30833	2729
24,31667	2694
24,32500	2655
24,33333	2613
24,34167	2566
24,35000	2516
24,35833	2464
24,36667	2407
24,37500	2348
24,38333	2287
24,39167	2224
24,40000	2159
24,40833	2093
24,41667	2025
24,42500	1956
24,43333	1886
24,44167	1816
24,45000	1745
24,45833	1675
24,46667	1605
24,47500	1535
24,48333	1466
24,49167	1398
24,50000	1332
24,50833	1266
24,51667	1202
24,52500	1139
24,53333	1078
24,54167	1019
24,55000	962
24,55833	907
24,56667	854
24,57500	803
24,58333	755
24,59167	708
24,60000	664
24,60833	621
24,61667	581
24,62500	542
24,63333	505
24,64167	471
24,65000	438
24,65833	407
24,66667	378
24,67500	352
24,68333	326
24,69167	302
24,70000	280
24,70833	260
24,71667	241
24,72500	223
24,73333	207
24,74167	191
24,75000	177
24,75833	164
24,76667	152
24,77500	141
24,78333	130
24,79167	120
24,80000	112
24,80833	104
24,81667	97
24,82500	90
24,83333	85
24,84167	80
24,85000	76
24,85833	71
24,86667	67
24,87500	63
24,88333	59
24,89167	56
24,90000	53
24,90833	51
24,91667	48
24,92500	46
24,93333	44
24,94167	42
24,95000	40
24,95833	39
24,96667	37
24,97500	36
24,98333	34
24,99167	33
25,00000	32
25,00833	32
25,01667	31
25,02500	30
25,03333	29
25,04167	28
25,05000	28
25,05833	28
25,06667	27
25,07500	26
25,08333	26
25,09167	26
25,10000	25
25,10833	25
25,11667	25
25,12500	24
25,13333	24
25,14167	24
25,15000	24
25,15833	24
25,16667	23
25,17500	23
25,18333	23
25,19167	23
25,20000	23
25,20833	23
25,21667	23
25,22500	23
25,23333	23
25,24167	22
25,25000	22
25,25833	22
25,26667	22
25,27500	22
25,28333	22
25,29167	22
25,30000	22
25,30833	21
25,31667	21
25,32500	21
25,33333	21
25,34167	21
25,35000	21
25,35833	21
25,36667	21
25,37500	21
25,38333	21
25,39167	22
25,40000	22
25,40833	21
25,41667	21
25,42500	21
25,43333	21
25,44167	21
25,45000	21
25,45833	21
25,46667	21
25,47500	21
25,48333	21
25,49167	21
25,50000	21
25,50833	21
25,51667	22
25,52500	21
25,53333	21
25,54167	21
25,55000	20
25,55833	20
25,56667	20
25,57500	20
25,58333	21
25,59167	21
25,60000	21
25,60833	20
25,61667	20
25,62500	20
25,63333	21
25,64167	20
25,65000	20
25,65833	20
25,66667	20
25,67500	21
25,68333	20
25,69167	20
25,70000	20
25,70833	20
25,71667	20
25,72500	21
25,73333	21
25,74167	21
25,75000	21
25,75833	21
25,76667	21
25,77500	21
25,78333	21
25,79167	21
25,80000	21
25,80833	21
25,81667	21
25,82500	21
25,83333	21
25,84167	21
25,85000	20
25,85833	20
25,86667	21
25,87500	21
25,88333	21
25,89167	21
25,90000	21
25,90833	21
25,91667	21
25,92500	21
25,93333	20
25,94167	21
25,95000	21
25,95833	21
25,96667	21
25,97500	21
25,98333	21
25,99167	21
26,00000	21
26,00833	21
26,01667	20
26,02500	20
26,03333	20
26,04167	20
26,05000	20
26,05833	20
26,06667	20
26,07500	20
26,08333	20
26,09167	20
26,10000	20
26,10833	20
26,11667	20
26,12500	21
26,13333	21
26,14167	21
26,15000	21
26,15833	21
26,16667	22
26,17500	22
26,18333	21
26,19167	21
26,20000	21
26,20833	20
26,21667	20
26,22500	20
26,23333	20
26,24167	20
26,25000	20
26,25833	20
26,26667	19
26,27500	19
26,28333	19
26,29167	19
26,30000	19
26,30833	19
26,31667	19
26,32500	19
26,33333	19
26,34167	19
26,35000	19
26,35833	19
26,36667	19
26,37500	20
26,38333	20
26,39167	20
26,40000	20
26,40833	20
26,41667	21
26,42500	21
26,43333	21
26,44167	20
26,45000	21
26,45833	21
26,46667	21
26,47500	21
26,48333	20
26,49167	20
26,50000	20
26,50833	20
26,51667	19
26,52500	19
26,53333	19
26,54167	19
26,55000	19
26,55833	19
26,56667	20
26,57500	20
26,58333	20
26,59167	20
26,60000	20
26,60833	20
26,61667	20
26,62500	20
26,63333	20
26,64167	20
26,65000	20
26,65833	20
26,66667	20
26,67500	20
26,68333	19
26,69167	20
26,70000	20
26,70833	20
26,71667	20
26,72500	20
26,73333	20
26,74167	20
26,75000	20
26,75833	19
26,76667	19
26,77500	19
26,78333	19
26,79167	19
26,80000	19
26,80833	20
26,81667	19
26,82500	19
26,83333	19
26,84167	19
26,85000	20
26,85833	20
26,86667	20
26,87500	20
26,88333	20
26,89167	20
26,90000	20
26,90833	20
26,91667	20
26,92500	20
26,93333	20
26,94167	20
26,95000	20
26,95833	20
26,96667	20
26,97500	19
26,98333	19
26,99167	20
27,00000	20
27,00833	20
27,01667	20
27,02500	20
27,03333	20
27,04167	20
27,05000	20
27,05833	20
27,06667	20
27,07500	20
27,08333	20
27,09167	20
27,10000	20
27,10833	19
27,11667	20
27,12500	20
27,13333	20
27,14167	20
27,15000	20
27,15833	20
27,16667	20
27,17500	20
27,18333	20
27,19167	20
27,20000	20
27,20833	20
27,21667	20
27,22500	20
27,23333	20
27,24167	20
27,25000	20
27,25833	20
27,26667	20
27,27500	20
27,28333	21
27,29167	21
27,30000	20
27,30833	20
27,31667	20
27,32500	20
27,33333	20
27,34167	20
27,35000	20
27,35833	20
27,36667	21
27,37500	20
27,38333	20
27,39167	20
27,40000	21
27,40833	21
27,41667	20
27,42500	20
27,43333	20
27,44167	20
27,45000	20
27,45833	20
27,46667	20
27,47500	20
27,48333	20
27,49167	20
27,50000	20
27,50833	20
27,51667	19
27,52500	19
27,53333	19
27,54167	20
27,55000	20
27,55833	20
27,56667	20
27,57500	20
27,58333	20
27,59167	19
27,60000	19
27,60833	19
27,61667	19
27,62500	19
27,63333	19
27,64167	19
27,65000	19
27,65833	19
27,66667	19
27,67500	19
27,68333	20
27,69167	20
27,70000	20
27,70833	20
27,71667	21
27,72500	21
27,73333	21
27,74167	21
27,75000	21
27,75833	22
27,76667	22
27,77500	22
27,78333	22
27,79167	22
27,80000	21
27,80833	21
27,81667	21
27,82500	21
27,83333	21
27,84167	21
27,85000	21
27,85833	21
27,86667	21
27,87500	21
27,88333	21
27,89167	21
27,90000	21
27,90833	21
27,91667	21
27,92500	21
27,93333	21
27,94167	21
27,95000	22
27,95833	22
27,96667	22
27,97500	22
27,98333	22
27,99167	22
28,00000	22
28,00833	22
28,01667	22
28,02500	22
28,03333	22
28,04167	22
28,05000	22
28,05833	22
28,06667	22
28,07500	22
28,08333	22
28,09167	22
28,10000	22
28,10833	22
28,11667	22
28,12500	22
28,13333	22
28,14167	22
28,15000	22
28,15833	22
28,16667	22
28,17500	21
28,18333	21
28,19167	22
28,20000	22
28,20833	22
28,21667	22
28,22500	22
28,23333	22
28,24167	22
28,25000	22
28,25833	21
28,26667	21
28,27500	21
28,28333	21
28,29167	21
28,30000	21
28,30833	21
28,31667	21
28,32500	21
28,33333	22
28,34167	22
28,35000	21
28,35833	21
28,36667	21
28,37500	21
28,38333	21
28,39167	21
28,40000	21
28,40833	21
28,41667	21
28,42500	21
28,43333	21
28,44167	21
28,45000	21
28,45833	21
28,46667	21
28,47500	21
28,48333	21
28,49167	22
28,50000	22
28,50833	22
28,51667	22
28,52500	21
28,53333	21
28,54167	21
28,55000	22
28,55833	22
28,56667	22
28,57500	22
28,58333	22
28,59167	22
28,60000	21
28,60833	21
28,61667	21
28,62500	21
28,63333	21
28,64167	21
28,65000	22
28,65833	22
28,66667	22
28,67500	22
28,68333	22
28,69167	22
28,70000	22
28,70833	22
28,71667	22
28,72500	22
28,73333	22
28,74167	22
28,75000	22
28,75833	22
28,76667	22
28,77500	22
28,78333	22
28,79167	21
28,80000	21
28,80833	21
28,81667	21
28,82500	21
28,83333	21
28,84167	21
28,85000	21
28,85833	21
28,86667	21
28,87500	22
28,88333	21
28,89167	21
28,90000	22
28,90833	22
28,91667	22
28,92500	22
28,93333	22
28,94167	22
28,95000	22
28,95833	22
28,96667	21
28,97500	21
28,98333	21
28,99167	21
29,00000	21
29,00833	21
29,01667	21
29,02500	21
29,03333	21
29,04167	21
29,05000	21
29,05833	22
29,06667	22
29,07500	21
29,08333	22
29,09167	22
29,10000	21
29,10833	22
29,11667	21
29,12500	22
29,13333	22
29,14167	21
29,15000	21
29,15833	21
29,16667	21
29,17500	22
29,18333	22
29,19167	21
29,20000	21
29,20833	21
29,21667	21
29,22500	21
29,23333	21
29,24167	21
29,25000	21
29,25833	21
29,26667	21
29,27500	22
29,28333	22
29,29167	22
29,30000	22
29,30833	22
29,31667	22
29,32500	22
29,33333	22
29,34167	22
29,35000	22
29,35833	22
29,36667	22
29,37500	22
29,38333	22
29,39167	21
29,40000	21
29,40833	22
29,41667	22
29,42500	22
29,43333	22
29,44167	22
29,45000	22
29,45833	22
29,46667	22
29,47500	22
29,48333	22
29,49167	22
29,50000	22
29,50833	22
29,51667	22
29,52500	22
29,53333	22
29,54167	22
29,55000	22
29,55833	22
29,56667	22
29,57500	22
29,58333	22
29,59167	22
29,60000	22
29,60833	21
29,61667	21
29,62500	21
29,63333	21
29,64167	22
29,65000	22
29,65833	22
29,66667	23
29,67500	23
29,68333	24
29,69167	24
29,70000	24
29,70833	24
29,71667	24
29,72500	24
29,73333	23
29,74167	23
29,75000	23
29,75833	23
29,76667	23
29,77500	23
29,78333	23
29,79167	23
29,80000	23
29,80833	23
29,81667	23
29,82500	23
29,83333	23
29,84167	23
29,85000	23
29,85833	24
29,86667	24
29,87500	24
29,88333	24
29,89167	24
29,90000	24
29,90833	24
29,91667	24
29,92500	24
29,93333	24
29,94167	24
29,95000	24
29,95833	24
29,96667	24
29,97500	24
29,98333	24
29,99167	25
30,00000	25

