R.Time (min)	Intensity
0	0
833	0
1667	0
2500	0
3333	-1
4167	-1
5000	-1
5833	-1
6667	-1
7500	-1
8333	-1
9167	0
10000	0
10833	0
11667	0
12500	0
13333	1
14167	1
15000	1
15833	1
16667	1
17500	1
18333	1
19167	1
20000	1
20833	2
21667	2
22500	2
23333	2
24167	2
25000	2
25833	2
26667	2
27500	1
28333	1
29167	2
30000	2
30833	3
31667	3
32500	3
33333	3
34167	3
35000	4
35833	4
36667	4
37500	4
38333	4
39167	3
40000	2
40833	2
41667	1
42500	0
43333	-1
44167	-1
45000	-1
45833	-1
46667	-1
47500	-1
48333	-1
49167	-1
50000	-1
50833	-1
51667	-1
52500	0
53333	0
54167	0
55000	0
55833	0
56667	0
57500	0
58333	0
59167	0
60000	0
60833	0
61667	1
62500	1
63333	1
64167	1
65000	1
65833	1
66667	1
67500	1
68333	1
69167	1
70000	1
70833	1
71667	1
72500	1
73333	2
74167	2
75000	2
75833	2
76667	2
77500	2
78333	2
79167	2
80000	2
80833	2
81667	2
82500	1
83333	1
84167	1
85000	1
85833	1
86667	1
87500	0
88333	0
89167	0
90000	0
90833	0
91667	0
92500	0
93333	0
94167	0
95000	0
95833	0
96667	0
97500	-0.0344692032358844
98333	-0.0689384064717688
99167	-0.103448989303375
100000	-0.137918192539259
100833	0.827612604224857
101667	0.793102021393251
102500	0.758632818157367
103333	0.724163614921482
104167	0.689653032089876
105000	0.655183828853992
105833	1.62071462561811
106667	1.5862040427865
107500	1.55173483955062
108333	1.51726563631473
109167	1.48275505348313
110000	0.448285850247243
110833	0.413816647011359
111667	1.37930606417975
112500	1.34483686094387
113333	1.31036765770798
114167	0.275857074876378
115000	0.241387871640494
115833	1.20691866840461
116667	1.172408085573
117500	1.13793888233712
118333	1.10346967910124
119167	1.06895909626963
120000	1.03448989303374
120833	1.00002068979786
121667	1.96551010696625
122500	1.93104090373037
123333	1.89657170049449
124167	1.86206111766288
125000	1.827591914427
125833	1.79312271119111
126667	2.75861212835951
127500	2.72414292512362
128333	2.68967372188774
129167	2.65516313905613
130000	2.62069393582025
130833	2.58622473258436
131667	1.55171414975276
132500	1.51724494651687
133333	1.48277574328099
134167	1.44826516044938
135000	1.4137959572135
135833	1.37932675397761
136667	1.34481617114601
137500	1.31034696791012
138333	1.27587776467424
139167	1.24136718184263
140000	2.20689797860675
140833	2.17242877537086
141667	2.13791819253926
142500	2.10344898930337
143333	1.06897978606749
144167	1.03446920323588
145000	1
145833	0.965530796764116
146667	0.93102021393251
147500	0.896551010696625
148333	0.862081807460741
149167	0.827571224629136
150000	0.793102021393251
150833	0.758632818157367
151667	1.72412223532576
152500	1.68965303208988
153333	1.65518382885399
154167	1.62067324602239
155000	1.5862040427865
155833	1.55173483955062
156667	1.51722425671901
157500	1.48275505348313
158333	1.44828585024724
159167	1.41377526741564
160000	1.37930606417975
160833	1.34483686094387
161667	1.31032627811226
162500	1.27585707487638
163333	1.24138787164049
164167	1.20687728880889
165000	1.172408085573
165833	1.13793888233712
166667	0.103428299505514
167500	0.0689590962696296
168333	0.0344898930337449
169167	-2.06897978607401E-5
170000	-0.0344898930337449
170833	0.93104090373037
171667	0.896530320898765
172500	0.862061117662881
173333	0.827591914426996
174167	0.79308133159539
175000	0.758612128359506
175833	0.724142925123621
176667	0.689632342292016
177500	0.655163139056131
178333	0.620693935820247
179167	0.586183352988641
180000	1.55171414975276
180833	1.51724494651687
181667	1.48273436368527
182500	0.448265160449382
183333	0.413795957213498
184167	0.379285374381892
185000	0.344816171146008
185833	0.310346967910124
186667	0.275836385078518
187500	0.241367181842633
188333	0.206897978606749
189167	0.172387395775143
190000	0.137918192539259
190833	0.103448989303375
191667	0.0689384064717689
192500	0.0344692032358842
193333	0
194167	0.991372443543298
195000	0.982755231878511
195833	0.974138020213723
196667	0.965510463757021
197500	0.956893252092234
198333	-0.0517239595725529
199167	-0.0603515160292547
200000	-0.0689687276940427
200833	0.92241406064117
201667	0.913786504184468
202500	-0.0948307074803187
203333	-0.103447919145107
204167	-0.112075475601809
205000	-0.120692687266596
205833	-0.129309898931383
206667	-0.137937455388085
207500	-0.146554667052873
208333	-0.15517187871766
209167	0.836200564825639
210000	0.827583353160851
210833	0.818966141496063
211667	0.810338585039362
212500	0.801721373374575
213333	0.793104161709787
214167	0.784476605253086
215000	0.775859393588298
215833	0.76724218192351
216667	0.758614625466809
217500	0.749997413802022
218333	0.741380202137234
219167	0.732752645680532
220000	0.724135434015745
220833	0.715518222350958
221667	-0.293109334105744
222500	-0.301726545770531
223333	-0.310343757435319
224167	-0.318971313892021
225000	-0.327588525556808
225833	0.663794262778405
226667	0.655166706321702
227500	0.646549494656915
228333	0.637932282992128
229167	0.629304726535426
230000	0.620687514870639
230833	-0.387929696794149
231667	-0.396557253250851
232500	-0.405174464915638
233333	-0.413791676580425
234167	-0.422419233037127
235000	0.568963555298085
235833	0.560346343633298
236667	0.551718787176596
237500	0.543101575511809
238333	0.534484363847021
239167	0.525856807390319
240000	0.517239595725532
240833	0.508622384060745
241667	0.499994827604043
242500	0.491377615939255
243333	1.48276040427447
244167	1.47413284781777
245000	1.46551563615298
245833	1.45689842448819
246667	1.44827086803149
247500	1.4396536563667
248333	1.43103644470192
249167	1.42240888824521
250000	1.41379167658043
250833	1.40517446491564
251667	1.39654690845894
252500	1.38792969679415
253333	1.37931248512936
254167	1.37068492867266
255000	1.36206771700787
255833	0.353450505343085
256667	1.34482294888638
257500	1.3362057372216
258333	1.32758852555681
259167	1.31896096910011
260000	1.31034375743532
260833	1.30172654577053
261667	0.29309898931383
262500	0.284481777649042
263333	0.275864565984255
264167	0.267237009527554
265000	0.258619797862766
265833	0.250002586197978
266667	0.241375029741277
267500	0.23275781807649
268333	0.224140606411702
269167	0.215513049955
270000	0.206895838290213
270833	0.198278626625426
271667	0.189651070168724
272500	0.181033858503936
273333	0.172416646839149
274167	0.163789090382447
275000	0.15517187871766
275833	0.146554667052873
276667	0.13792711059617
277500	0.129309898931383
278333	0.120692687266596
279167	0.112065130809894
280000	0.103447919145107
280833	0.0948307074803187
281667	0.086203151023617
282500	-0.92241406064117
283333	-0.931031272305957
284167	-0.93965882876266
285000	-0.948276040427447
285833	-0.956893252092234
286667	0.034479191451064
287500	0.0258619797862769
288333	0.0172447681214889
289167	0.00861721166478713
290000	0
290833	0
291667	0
292500	0
293333	0
294167	0
295000	0
295833	0
296667	0
297500	0
298333	0
299167	0
300000	0
300833	0
301667	-1
302500	-1
303333	-1
304167	-1
305000	-1
305833	-1
306667	-1
307500	-1
308333	-1
309167	-1
310000	0
310833	0
311667	0
312500	0
313333	0
314167	0
315000	0
315833	0
316667	0
317500	0
318333	-1
319167	-1
320000	-1
320833	0
321667	0
322500	0
323333	0
324167	0
325000	-1
325833	-1
326667	-1
327500	-1
328333	-1
329167	-1
330000	-1
330833	-1
331667	0
332500	0
333333	0
334167	0
335000	0
335833	0
336667	0
337500	0
338333	0
339167	0
340000	-1
340833	-1
341667	-1
342500	-1
343333	-1
344167	-1
345000	-1
345833	0
346667	0
347500	0
348333	0
349167	-1
350000	0
350833	0
351667	0
352500	0
353333	0
354167	0
355000	0
355833	0
356667	0
357500	0
358333	0
359167	0
360000	0
360833	0
361667	0
362500	0
363333	0
364167	-1
365000	-1
365833	-1
366667	-1
367500	0
368333	0
369167	0
370000	0
370833	0
371667	0
372500	0
373333	0
374167	1
375000	1
375833	1
376667	1
377500	1
378333	0
379167	0
380000	0
380833	-1
381667	0
382500	0
383333	0
384167	0
385000	0
385833	0
386667	0
387500	-0.00861730080897072
388333	-1.01723460161794
389167	-1.02586224732584
390000	-1.03447954813482
390833	-0.0430968489437857
391667	-0.0517244946516868
392500	-0.0603417954606584
393333	-0.0689590962696292
394167	-0.0775867419775311
395000	-0.0862040427865018
395833	-0.0948213435954735
396667	-1.10344898930337
397500	-1.11206629011235
398333	-1.12068359092132
399167	-1.12931123662922
400000	-1.13792853743819
400833	-1.14654583824716
401667	-0.155173483955061
402500	-0.163790784764033
403333	-0.172408085573004
404167	-0.181035731280906
405000	-0.189653032089876
405833	-0.198270332898848
406667	-0.206897978606749
407500	-0.21551527941572
408333	-0.224132580224691
409167	-0.232760225932592
410000	-0.241377526741564
410833	-0.249994827550535
411667	-0.258622473258436
412500	-0.267239774067408
413333	-0.275857074876378
414167	0.71551527941572
415000	0.706897978606749
415833	0.698280677797777
416667	0.689653032089876
417500	0.681035731280906
418333	0.672418430471934
419167	0.663790784764033
420000	0.655173483955061
420833	1.64655618314609
421667	1.63792853743819
422500	1.62931123662922
423333	1.62069393582025
424167	1.61206629011235
425000	1.60344898930337
425833	1.5948316884944
426667	1.5862040427865
427500	1.57758674197753
428333	1.56896944116856
429167	1.56034179546066
430000	1.55172449465169
430833	0.543107193842716
431667	0.534479548134815
432500	0.525862247325843
433333	0.517244946516873
434167	0.508617300808971
435000	0.5
435833	0.491382699191029
436667	0.482755053483127
437500	1.47413775267416
438333	1.46552045186519
439167	1.45689280615728
440000	1.44827550534831
440833	1.43965820453934
441667	1.43103055883144
442500	1.42241325802247
443333	1.4137959572135
444167	1.4051683115056
445000	1.39655101069663
445833	1.38793370988765
446667	1.37930606417975
447500	1.37068876337078
448333	1.36207146256181
449167	1.35344381685391
450000	1.34482651604494
450833	1.33620921523597
451667	1.32758156952807
452500	1.31896426871909
453333	1.31034696791012
454167	2.30171932220222
455000	2.29310202139325
455833	2.28448472058428
456667	2.27585707487638
457500	2.26723977406741
458333	2.25862247325844
459167	2.24999482755053
460000	2.24137752674156
460833	1.23276022593259
461667	1.22413258022469
462500	1.21551527941572
463333	1.20689797860675
464167	1.19827033289885
465000	2.18965303208988
465833	2.18103573128091
466667	2.172408085573
467500	2.16379078476403
468333	2.15517348395506
469167	2.14654583824716
470000	2.13792853743819
470833	2.12931123662922
471667	2.12068359092132
472500	2.11206629011235
473333	2.10344898930337
474167	2.09482134359547
475000	2.0862040427865
475833	2.07758674197753
476667	2.06895909626963
477500	1.06034179546066
478333	1.05172449465169
479167	1.04309684894379
480000	1.03447954813482
480833	1.02586224732584
481667	1.01723460161794
482500	1.00861730080897
483333	0
484167	-0.00862755645670177
485000	-0.0172447681214889
485833	-0.0258619797862769
486667	0.965510463757021
487500	0.956893252092234
488333	0.948276040427447
489167	-0.0603515160292547
490000	-0.0689687276940427
490833	0.92241406064117
491667	0.913786504184468
492500	0.905169292519681
493333	1.89655208085489
494167	0.887924524398191
495000	0.879307312733404
495833	0.870690101068617
496667	0.862062544611915
497500	0.853445332947127
498333	0.84482812128234
499167	0.836200564825639
500000	0.827583353160851
500833	0.818966141496063
501667	0.810338585039362
502500	0.801721373374575
503333	0.793104161709787
504167	0.784476605253086
505000	0.775859393588298
505833	0.76724218192351
506667	0.758614625466809
507500	0.749997413802022
508333	0.741380202137234
509167	0.732752645680532
510000	0.724135434015745
510833	0.715518222350958
511667	0.706890665894256
512500	0.698273454229469
513333	-0.310343757435319
514167	-0.318971313892021
515000	-0.327588525556808
515833	-0.336205737221595
516667	-0.344833293678298
517500	-0.353450505343085
518333	-0.362067717007872
519167	0.629304726535426
520000	0.620687514870639
520833	0.612070303205851
521667	0.603442746749149
522500	0.594825535084362
523333	0.586208323419575
524167	0.577580766962873
525000	0.568963555298085
525833	0.560346343633298
526667	0.551718787176596
527500	0.543101575511809
528333	0.534484363847021
529167	0.525856807390319
530000	0.517239595725532
530833	0.508622384060745
531667	0.499994827604043
532500	0.491377615939255
533333	0.482760404274468
534167	0.474132847817766
535000	0.465515636152979
535833	0.456898424488191
536667	0.448270868031489
537500	0.439653656366702
538333	0.431036444701915
539167	1.42240888824521
540000	1.41379167658043
540833	1.40517446491564
541667	0.396546908458936
542500	0.387929696794149
543333	0.379312485129361
544167	0.370684928672659
545000	1.36206771700787
545833	1.35345050534309
546667	1.34482294888638
547500	1.3362057372216
548333	0.327588525556808
549167	0.318960969100107
550000	0.310343757435319
550833	0.301726545770531
551667	0.29309898931383
552500	0.284481777649042
553333	0.275864565984255
554167	0.267237009527554
555000	0.258619797862766
555833	0.250002586197978
556667	0.241375029741277
557500	0.23275781807649
558333	0.224140606411702
559167	0.215513049955
560000	0.206895838290213
560833	1.19827862662543
561667	1.18965107016872
562500	1.18103385850394
563333	1.17241664683915
564167	1.16378909038245
565000	1.15517187871766
565833	1.14655466705287
566667	1.13792711059617
567500	1.12930989893138
568333	1.1206926872666
569167	0.112065130809894
570000	0.103447919145107
570833	0.0948307074803187
571667	1.08620315102362
572500	1.07758593935883
573333	1.06896872769404
574167	0.0603411712373401
575000	0.0517239595725529
575833	0.0431067479077658
576667	0.034479191451064
577500	0.0258619797862769
578333	0.0172447681214889
579167	0.00861721166478713
580000	0
580833	-0.0132477930636377
581667	-0.0265114898404368
582500	-0.0397592829040736
583333	-0.0530070759677113
584167	0.93372922725549
585000	0.920481434191853
585833	0.907233641128215
586667	0.893969944351416
587500	0.880722151287778
588333	0.867474358224142
589167	0.854210661447342
590000	0.840962868383705
590833	0.827715075320067
591667	0.814451378543269
592500	1.80120358547963
593333	1.78795579241599
594167	1.77469209563919
595000	1.76144430257556
595833	2.74819650951192
596667	2.73493281273512
597500	2.72168501967148
598333	2.70843722660785
599167	2.69517352983105
600000	2.68192573676741
600833	3.66867794370377
601667	3.65541424692697
602500	4.64216645386334
603333	4.6289186607997
604167	4.6156549640229
605000	4.60240717095926
605833	5.58915937789562
606667	5.57589568111883
607500	6.56264788805519
608333	8.54940009499155
609167	10.5361363982148
610000	13.5228886051511
610833	17.5096408120875
611667	24.4963771153107
612500	34.483129322247
613333	49.4698815291834
614167	71.4566178324066
615000	103.443370039343
615833	151.430122246279
616667	223.416858549503
617500	326.403610756439
618333	473.390362963375
619167	681.377099266598
620000	969.363851473535
620833	1362.35060368047
621667	1887.33733998369
622500	2579.32409219063
623333	3475.31084439757
624167	4617.29758070079
625000	6046.28433290773
625833	7808.27108511466
626667	9947.25782141789
627500	12506.2445736248
628333	15527.2313258318
629167	19048.218062135
630000	23103.2048143419
630833	27720.1915665489
631667	32924.1783028521
632500	38732.165055059
633333	45159.151807266
634167	52211.1385435692
635000	59889.1252957761
635833	68191.112047983
636667	77110.0987842863
637500	86634.0855364932
638333	96744.0722887001
639167	107419.059025003
640000	118635.04577721
640833	130360.032529417
641667	142552.01926572
642500	155168.006017927
643333	168152.992770134
644167	181434.979506438
645000	194909.966258645
645833	208420.953010851
646667	221719.939747155
647500	234413.926499362
648333	245938.913251569
649167	255563.899987872
650000	262456.886740079
650833	265813.873492286
651667	265009.860228589
652500	259732.846980796
653333	250058.833733003
654167	236451.820469306
655000	219677.807221513
655833	200680.79397372
656667	180450.780710023
657500	159913.76746223
658333	139854.754214437
659167	120871.74095074
660000	103370.727702947
660833	87589.714455154
661667	73621.7011914572
662500	61452.6879436642
663333	50990.6746958711
664167	42100.6614321743
665000	34618.6481843813
665833	28377.6349365882
666667	23206.6216728914
667500	18951.6084250984
668333	15468.5951773053
669167	12629.5819136085
670000	10323.5686658155
670833	8457.55541802239
671667	6949.54215432561
672500	5733.52890653255
673333	4753.51565873949
674167	3962.50239504271
675000	3324.48914724965
675833	2807.47589945658
676667	2388.4626357598
677500	2047.44938796674
678333	1768.43614017368
679167	1539.4228764769
680000	1350.40962868384
680833	1193.39638089077
681667	1061.383117194
682500	951.369869400933
683333	857.356621607869
684167	777.343357911093
685000	708.330110118029
685833	649.316862324965
686667	597.303598628188
687500	552.290350835125
688333	512.277103042061
689167	477.263839345284
690000	446.250591552221
690833	418.237343759157
691667	394.22408006238
692500	372.210832269317
693333	352.197584476253
694167	334.184320779476
695000	317.171072986413
695833	301.157825193349
696667	287.144561496572
697500	275.131313703509
698333	263.118065910445
699167	252.104802213668
700000	241.091554420604
700833	232.078306627541
701667	223.065042930764
702500	214.0517951377
703333	206.038547344637
704167	199.02528364786
705000	192.012035854796
705833	184.998788061733
706667	178.985524364956
707500	172.972276571892
708333	167.959028778829
709167	162.945765082052
710000	157.932517288988
710833	152.919269495925
711667	148.906005799148
712500	144.892758006084
713333	140.87951021302
714167	136.866246516244
715000	133.85299872318
715833	129.839750930116
716667	126.82648723334
717500	122.813239440276
718333	119.799991647212
719167	116.786727950436
720000	114.773480157372
720833	111.760232364308
721667	108.746968667531
722500	105.733720874468
723333	102.720473081404
724167	99.7072093846274
725000	97.6939615915637
725833	95.6807137985001
726667	93.6674501017233
727500	90.6542023086596
728333	88.640954515596
729167	86.6276908188192
730000	83.6144430257556
730833	81.6011952326919
731667	80.5879315359151
732500	78.5746837428515
733333	76.5614359497879
734167	75.5481722530111
735000	73.5349244599474
735833	72.5216766668838
736667	70.508412970107
737500	69.4951651770433
738333	67.4819173839797
739167	66.4686536872029
740000	64.4554058941393
740833	63.4421581010756
741667	62.4288944042988
742500	61.4156466112352
743333	60.4023988181716
744167	59.3891351213948
745000	58.3758873283311
745833	57.3626395352675
746667	55.3493758384907
747500	54.3361280454271
748333	53.3228802523634
749167	52.3096165555866
750000	51.296368762523
750833	50.2831209694593
751667	49.2698572726825
752500	48.2566094796189
753333	48.2433616865553
754167	48.2300979897785
755000	47.2168501967148
755833	46.2036024036512
756667	45.1903387068744
757500	44.1770909138108
758333	44.1638431207471
759167	43.1505794239703
760000	43.1373316309067
760833	42.124083837843
761667	41.1108201410662
762500	40.0975723480026
763333	40.084324554939
764167	39.0710608581622
765000	39.0578130650985
765833	39.0445652720349
766667	38.0313015752581
767500	37.0180537821945
768333	36.0048059891308
769167	34.991542292354
770000	34.9782944992904
770833	33.9650467062268
771667	33.95178300945
772500	32.9385352163863
773333	32.9252874233227
774167	31.9120237265459
775000	31.8987759334822
775833	31.8855281404186
776667	31.8722644436418
777500	31.8590166505782
778333	30.8457688575145
779167	30.8325051607377
780000	29.8192573676741
780833	29.8060095746105
781667	28.7927458778337
782500	28.77949808477
783333	28.7662502917064
784167	27.7529865949296
785000	27.7397388018659
785833	27.7264910088023
786667	26.7132273120255
787500	26.6999795189619
788333	26.6867317258982
789167	25.6734680291214
790000	25.6602202360578
790833	25.6469724429942
791667	25.6337087462174
792500	24.6204609531537
793333	24.6072131600901
794167	23.5939494633133
795000	23.5807016702497
795833	23.567453877186
796667	22.5541901804092
797500	22.5409423873456
798333	22.5276945942819
799167	21.5144308975051
800000	20.5011831044415
800833	20.4879353113779
801667	20.4746716146011
802500	20.4614238215374
803333	19.4481760284738
804167	19.434912331697
805000	19.4216645386334
805833	19.4084167455697
806667	19.3951530487929
807500	19.3819052557293
808333	19.3686574626656
809167	19.3553937658888
810000	19.3421459728252
810833	19.3288981797616
811667	18.3156344829848
812500	18.3023866899211
813333	17.2891388968575
814167	17.2758752000807
815000	17.2626274070171
815833	17.2493796139534
816667	16.2361159171766
817500	16.222868124113
818333	16.2096203310494
819167	16.1963566342726
820000	16.1831088412089
820833	16.1698610481453
821667	15.1565973513685
822500	15.1433495583048
823333	15.1301017652412
824167	15.1168380684644
825000	14.1035902754008
825833	14.0903424823371
826667	14.0770787855603
827500	14.0638309924967
828333	14.0505831994331
829167	14.0373195026563
830000	14.0240717095926
830833	14.010823916529
831667	13.9975602197522
832500	12.9843124266885
833333	11.9710646336249
834167	11.9578009368481
835000	11.9445531437845
835833	11.9313053507208
836667	11.918041653944
837500	11.9047938608804
838333	11.8915460678168
839167	11.87828237104
840000	11.8650345779763
840833	11.8517867849127
841667	10.8385230881359
842500	10.8252752950722
843333	10.8120275020086
844167	10.7987638052318
845000	10.7855160121682
845833	10.7722682191045
846667	10.7590045223277
847500	10.7457567292641
848333	10.7325089362005
849167	9.71924523942367
850000	9.70599744636003
850833	8.69274965329639
851667	8.67948595651959
852500	8.66623816345595
853333	7.65299037039232
854167	8.63972667361552
855000	8.62647888055188
855833	8.61323108748824
856667	9.59996739071144
857500	9.58671959764781
858333	8.57347180458417
859167	8.56020810780737
860000	8.54696031474373
860833	8.5337125216801
861667	8.5204488249033
862500	8.50720103183966
863333	8.49395323877602
864167	8.48068954199922
865000	8.46744174893558
865833	8.45419395587195
866667	8.44093025909515
867500	7.42768246603151
868333	7.41443467296788
869167	7.40117097619108
870000	7.38792318312744
870833	6.3746753900638
871667	6.361411693287
872500	7.34816390022336
873333	7.33491610715973
874167	7.32165241038293
875000	7.30840461731929
875833	6.29515682425565
876667	6.28189312747885
877500	7.26864533441522
878333	7.25539754135158
879167	6.24213384457478
880000	6.22888605151114
880833	6.21563825844751
881667	6.20237456167071
882500	6.18912676860707
883333	5.17587897554343
884167	5.16261527876663
885000	5.149367485703
885833	5.13611969263936
886667	5.12285599586256
887500	5.10960820279892
888333	5.09636040973528
889167	6.08309671295848
890000	6.06984891989485
890833	6.05660112683121
891667	6.04333743005441
892500	6.03008963699077
893333	5.01684184392714
894167	5.00357814715034
895000	5.9903303540867
895833	5.97708256102306
896667	5.96381886424626
897500	5.95057107118263
898333	5.93732327811899
899167	5.92405958134219
900000	5.91081178827855
900833	5.89756399521491
901667	5.88430029843812
902500	6.87105250537448
903333	6.85780471231084
904167	6.84454101553404
905000	6.83129322247041
905833	6.81804542940677
906667	6.80478173262997
907500	6.79153393956633
908333	6.77828614650269
909167	6.76502244972589
910000	6.75177465666226
910833	6.73852686359862
911667	6.72526316682182
912500	6.71201537375818
913333	5.69876758069455
914167	5.68550388391775
915000	5.67225609085411
915833	4.65900829779047
916667	4.64574460101367
917500	4.63249680795004
918333	3.6192490148864
919167	3.6059853181096
920000	3.59273752504596
920833	3.57948973198232
921667	3.56622603520553
922500	3.55297824214189
923333	2.53973044907825
924167	2.52646675230145
925000	2.51321895923781
925833	2.49997116617418
926667	2.48670746939738
927500	2.47345967633374
928333	2.4602118832701
929167	2.44694818649331
930000	2.43370039342967
930833	1.42045260036603
931667	1.40718890358923
932500	1.39394111052559
933333	1.38069331746195
934167	1.36742962068516
935000	1.35418182762152
935833	1.34093403455788
936667	1.33009476067896
937500	1.33009476067896
938333	1.33009476067896
939167	1.33009476067896
940000	1.33009476067896
940833	1.33009476067896
941667	0.330094760678957
942500	0.330094760678957
943333	0.330094760678957
944167	0.330094760678957
945000	0.330094760678957
945833	-0.669905239321043
946667	-0.669905239321043
947500	-0.669905239321043
948333	-0.669905239321043
949167	-0.669905239321043
950000	0.330094760678957
950833	0.330094760678957
951667	1.33009476067896
952500	1.33009476067896
953333	1.33009476067896
954167	1.33009476067896
955000	1.33009476067896
955833	1.33009476067896
956667	1.33009476067896
957500	1.33009476067896
958333	1.33009476067896
959167	1.33009476067896
960000	0.330094760678957
960833	0.330094760678957
961667	0.330094760678957
962500	0.330094760678957
963333	-0.669905239321043
964167	-0.669905239321043
965000	0.330094760678957
965833	0.330094760678957
966667	0.330094760678957
967500	0.330094760678957
968333	0.330094760678957
969167	-0.669905239321043
970000	0.330094760678957
970833	0.330094760678957
971667	0.330094760678957
972500	0.330094760678957
973333	0.330094760678957
974167	0.330094760678957
975000	0.330094760678957
975833	0.330094760678957
976667	0.330094760678957
977500	0.330094760678957
978333	0.330094760678957
979167	0.330094760678957
980000	0.330094760678957
980833	1.33009476067896
981667	1.33009476067896
982500	1.33009476067896
983333	1.33009476067896
984167	1.33009476067896
985000	1.33009476067896
985833	0.330094760678957
986667	0.330094760678957
987500	1.33009476067896
988333	1.33009476067896
989167	1.33009476067896
990000	1.33009476067896
990833	1.33009476067896
991667	1.33009476067896
992500	1.33009476067896
993333	1.33009476067896
994167	1.33009476067896
995000	1.33009476067896
995833	1.33009476067896
996667	1.326087286525
997500	1.31522205813799
998333	1.30435682975097
999167	1.2934785578725
1000000	1.28261332948549
1000833	1.27174810109847
1001667	1.26086982922
1002500	1.25000460083299
1003333	1.23913937244597
1004167	1.2282611005675
1005000	0.217395872180486
1005833	0.206530643793473
1006667	0.195652371914999
1007500	0.184787143527986
1008333	0.173921915140973
1009167	0.163043643262499
1010000	0.152178414875486
1010833	0.141313186488473
1011667	0.130434914609999
1012500	0.119569686222986
1013333	0.108704457835973
1014167	0.0978261859574996
1015000	0.0869609575704864
1015833	0.0760957291834732
1016667	0.0652174573049997
1017500	0.0543522289179865
1018333	-0.956512999469027
1019167	-0.9673912713475
1020000	0.0217435002654867
1020833	0.0108782718784735
1021667	0
1022500	0.0172346016179414
1023333	-0.965530796764115
1024167	-0.948275505348313
1025000	-0.93104090373037
1025833	-0.913806302112429
1026667	-0.896551010696626
1027500	-0.879316409078683
1028333	-0.862081807460742
1029167	-0.844826516044938
1030000	-0.827591914426996
1030833	-0.810357312809053
1031667	-0.793102021393251
1032500	-0.775867419775309
1033333	-0.758632818157366
1034167	-0.741377526741564
1035000	0.275857074876379
1035833	0.293091676494321
1036667	0.310346967910123
1037500	0.327581569528066
1038333	0.344816171146007
1039167	-0.637928537438189
1040000	-0.620693935820247
1040833	-0.603459334202304
1041667	-1.5862040427865
1042500	-1.56896944116856
1043333	-1.55173483955062
1044167	-1.53447954813482
1045000	-1.51724494651687
1045833	-0.50001034489893
1046667	-0.482755053483128
1047500	-0.465520451865185
1048333	-0.448285850247244
1049167	-0.43103055883144
1050000	-0.413795957213498
1050833	-0.396561355595555
1051667	0.620693935820247
1052500	0.637928537438189
1053333	0.655163139056132
1054167	0.672418430471934
1055000	0.689653032089877
1055833	0.706887633707819
1056667	-0.275857074876379
1057500	-0.258622473258436
1058333	0.758612128359506
1059167	0.775867419775309
1060000	0.793102021393251
1060833	0.810336623011192
1061667	0.827591914426996
1062500	-0.155173483955062
1063333	-0.137938882337119
1064167	-0.120683590921317
1065000	0.896551010696626
1065833	-0.0862143876854322
1066667	-0.06895909626963
1067500	-0.0517244946516868
1068333	-0.0344898930337454
1069167	-1.01723460161794
1070000	-1
1070833	-0.982765398382059
1071667	-0.965510106966255
1072500	-0.948275505348313
1073333	-0.93104090373037
1074167	-0.913785612314568
1075000	-0.896551010696626
1075833	-0.879316409078683
1076667	-1.86206111766288
1077500	-1.84482651604494
1078333	-1.827591914427
1079167	-1.81033662301119
1080000	-1.79310202139325
1080833	-0.775867419775309
1081667	-0.758612128359506
1082500	-1.74137752674156
1083333	-1.72414292512362
1084167	-1.70688763370782
1085000	-1.68965303208988
1085833	-1.67241843047193
1086667	-1.65516313905613
1087500	-1.63792853743819
1088333	-1.62069393582025
1089167	-0.603438644404445
1090000	-0.586204042786502
1090833	-0.56896944116856
1091667	-0.551714149752756
1092500	-0.534479548134815
1093333	-0.517244946516872
1094167	-0.49998965510107
1095000	-0.482755053483128
1095833	-0.465520451865185
1096667	-0.448265160449383
1097500	-1.43103055883144
1098333	-1.4137959572135
1099167	-1.39654066579769
1100000	-0.379306064179753
1100833	-0.362071462561811
1101667	-0.344816171146007
1102500	-0.327581569528066
1103333	-0.310346967910125
1104167	-0.293091676494321
1105000	-0.275857074876379
1105833	-0.258622473258436
1106667	-0.241367181842634
1107500	-0.224132580224691
1108333	-0.206897978606749
1109167	-0.189642687190947
1110000	-0.172408085573004
1110833	-0.155173483955062
1111667	0.862081807460742
1112500	0.879316409078683
1113333	0.896551010696626
1114167	0.913806302112429
1115000	0.93104090373037
1115833	0.948275505348313
1116667	0.965530796764115
1117500	0.982765398382059
1118333	0
1119167	-0.0258826693701053
1120000	-0.0517343043644676
1120833	-0.0775859393588298
1121667	-0.103468608728935
1122500	-0.129320243723297
1123333	-0.15517187871766
1124167	0.818945451912235
1125000	0.793093816917873
1125833	0.76724218192351
1126667	0.741359512553405
1127500	0.715507877559043
1128333	0.689656242564681
1129167	0.663773573194575
1130000	0.637921938200213
1130833	0.612070303205851
1131667	0.586187633835745
1132500	0.560335998841383
1133333	-0.465515636152979
1134167	-0.491398305523084
1135000	-0.517249940517447
1135833	-0.543101575511809
1136667	0.431015755118086
1137500	0.405164120123723
1138333	0.379312485129361
1139167	0.353429815759256
1140000	1.32757818076489
1140833	0.301726545770531
1141667	0.275843876400426
1142500	0.249992241406064
1143333	0.224140606411702
1144167	0.198257937041596
1145000	0.172406302047234
1145833	1.14655466705287
1146667	1.12067199768277
1147500	1.0948203626884
1148333	1.06896872769404
1149167	1.04308605832394
1150000	1.01723442332957
1150833	0.991382788335212
1151667	0.965500118965107
1152500	0.939648483970744
1153333	0.913796848976382
1154167	0.887914179606277
1155000	0.862062544611915
1155833	0.836210909617552
1156667	0.810328240247447
1157500	0.784476605253085
1158333	0.758624970258722
1159167	0.732742300888617
1160000	0.706890665894255
1160833	0.681039030899893
1161667	0.655156361529787
1162500	0.629304726535425
1163333	0.603453091541063
1164167	0.577570422170957
1165000	0.551718787176595
1165833	0.525867152182233
1166667	0.499984482812128
1167500	0.474132847817767
1168333	0.448281212823405
1169167	0.422398543453298
1170000	0.396546908458937
1170833	0.370695273464575
1171667	0.344812604094468
1172500	0.318960969100107
1173333	0.293109334105745
1174167	0.267226664735638
1175000	1.24137502974128
1175833	1.21552339474692
1176667	1.18964072537681
1177500	1.16378909038245
1178333	1.13793745538809
1179167	1.11205478601798
1180000	1.08620315102362
1180833	0.0603515160292556
1181667	0.0344688466591485
1182500	0.00861721166478802
1183333	0.982765576670426
1184167	0.956882907300319
1185000	0.931031272305958
1185833	1.9051796373116
1186667	0.879296967941489
1187500	0.853445332947128
1188333	0.827593697952766
1189167	0.801711028582659
1190000	0.775859393588298
1190833	0.750007758593936
1191667	0.724125089223831
1192500	0.698273454229469
1193333	0.672421819235106
1194167	0.646539149865001
1195000	0.620687514870639
1195833	0.594835879876277
1196667	0.568953210506171
1197500	0.543101575511809
1198333	0.517249940517447
1199167	1.49136727114734
1200000	1.46551563615298
1200833	1.43966400115862
1201667	1.41378133178851
1202500	1.38792969679415
1203333	1.36207806179979
1204167	0.336195392429682
1205000	0.310343757435319
1205833	0.284492122440957
1206667	0.258609453070852
1207500	0.23275781807649
1208333	0.206906183082127
1209167	0.181023513712022
1210000	0.15517187871766
1210833	0.129320243723297
1211667	0.103437574353192
1212500	0.0775859393588298
1213333	0.0517343043644676
1214167	0.0258516349943623
1215000	0
1215833	0
1216667	0
1217500	0
1218333	0
1219167	0
1220000	0
1220833	0
1221667	0
1222500	0
1223333	0
1224167	1
1225000	1
1225833	1
1226667	1
1227500	1
1228333	2
1229167	2
1230000	2
1230833	2
1231667	2
1232500	1
1233333	1
1234167	1
1235000	2
1235833	2
1236667	2
1237500	2
1238333	2
1239167	2
1240000	2
1240833	2
1241667	3
1242500	3
1243333	3
1244167	3
1245000	3
1245833	3
1246667	3
1247500	3
1248333	3
1249167	2
1250000	2
1250833	1
1251667	1
1252500	1
1253333	1
1254167	2
1255000	2
1255833	2
1256667	2
1257500	2
1258333	1
1259167	1
1260000	1
1260833	1
1261667	1
1262500	1
1263333	1
1264167	1
1265000	1
1265833	1
1266667	1
1267500	1
1268333	1
1269167	1
1270000	0
1270833	0
1271667	0
1272500	0
1273333	0
1274167	-1
1275000	-1
1275833	-1
1276667	-1
1277500	0
1278333	0
1279167	1
1280000	1
1280833	1
1281667	2
1282500	2
1283333	2
1284167	2
1285000	1
1285833	1
1286667	1
1287500	1
1288333	1
1289167	1
1290000	1
1290833	0
1291667	0
1292500	0
1293333	0
1294167	0
1295000	0
1295833	0
1296667	0
1297500	0
1298333	0
1299167	0
1300000	0
1300833	0
1301667	0
1302500	0
1303333	-1
1304167	-1
1305000	-1
1305833	0
1306667	0
1307500	0
1308333	0
1309167	0
1310000	0
1310833	0
1311667	0
1312500	-0.0289510994319109
1313333	-0.0579021988638235
1314167	-0.086888053517141
1315000	-1.11583915294905
1315833	-1.14479025238096
1316667	-1.17377610703428
1317500	-1.20272720646619
1318333	-1.23167830589811
1319167	-1.26066416055142
1320000	-1.28961525998334
1320833	-1.31856635941525
1321667	-1.34755221406857
1322500	-1.37650331350048
1323333	-1.40545441293239
1324167	-1.43444026758571
1325000	-1.46339136701762
1325833	-1.49234246644953
1326667	-2.52132832110285
1327500	-2.55027942053476
1328333	-1.57923051996667
1329167	-1.60821637461999
1330000	-1.6371674740519
1330833	-1.66611857348381
1331667	-1.69510442813713
1332500	-1.72405552756904
1333333	-1.75300662700096
1334167	-1.78199248165427
1335000	-1.81094358108619
1335833	-0.839894680518096
1336667	-1.86888053517142
1337500	-1.89783163460333
1338333	-0.926782734035237
1339167	-0.955768588688557
1340000	-0.984719688120467
1340833	-1.01367078755238
1341667	-1.0426566422057
1342500	-1.07160774163761
1343333	-1.10055884106952
1344167	-1.12954469572284
1345000	-1.15849579515475
1345833	-1.18744689458666
1346667	-1.21643274923998
1347500	-1.24538384867189
1348333	-1.2743349481038
1349167	-1.30332080275712
1350000	-1.33227190218903
1350833	-1.36122300162095
1351667	-1.39020885627426
1352500	-1.41915995570618
1353333	-1.44811105513809
1354167	-0.477096909791406
1355000	-1.50604800922332
1355833	-1.53499910865523
1356667	-1.56398496330855
1357500	-1.59293606274046
1358333	-0.621887162172371
1359167	-0.650873016825688
1360000	-0.679824116257599
1360833	-0.708775215689512
1361667	-0.737761070342829
1362500	-0.766712169774742
1363333	-0.795663269206653
1364167	-0.824649123859972
1365000	-0.853600223291883
1365833	-0.882551322723796
1366667	-0.911537177377113
1367500	-0.940488276809024
1368333	-0.969439376240937
1369167	-0.998425230894254
1370000	-1.02737633032617
1370833	-1.05632742975808
1371667	-0.0853132844113951
1372500	-0.114264383843306
1373333	-0.14321548327522
1374167	-0.172201337928538
1375000	-0.201152437360449
1375833	-0.23010353679236
1376667	-0.259089391445677
1377500	-0.288040490877592
1378333	0.683008409690498
1379167	-0.34597744496282
1380000	-0.374928544394731
1380833	-0.403879643826645
1381667	0.570060813067435
1382500	0.586472798040759
1383333	0.60288478301408
1384167	-0.380683529749724
1385000	-0.3642715447764
1385833	-0.347859559803076
1386667	-0.331427872566881
1387500	-0.31501588759356
1388333	0.701396097379764
1389167	-0.28217221538404
1390000	-0.265760230410717
1390833	0.750651754562607
1391667	0.767083441798803
1392500	0.783495426772124
1393333	-0.200092588254552
1394167	-0.183660901018357
1395000	-0.167248916045033
1395833	-0.150836931071712
1396667	-0.134405243835516
1397500	-0.117993258862192
1398333	-0.101581273888868
1399167	-0.0851495866526726
1400000	-0.0687376016793486
1400833	-0.0523256167060282
1401667	0.964106070530168
1402500	0.980518055503492
1403333	0.996930040476816
1404167	2.01336172771301
1405000	2.02977371268633
1405833	2.04618569765966
1406667	2.06261738489585
1407500	2.07902936986918
1408333	3.0954413548425
1409167	3.11187304207869
1410000	4.12828502705202
1410833	5.14469701202534
1411667	5.16112869926154
1412500	6.17754068423486
1413333	6.19395266920818
1414167	7.21038435644438
1415000	7.2267963414177
1415833	8.24320832639102
1416667	9.25964001362722
1417500	10.2760519986005
1418333	11.2924639835739
1419167	12.3088956708101
1420000	13.3253076557834
1420833	14.3417196407567
1421667	14.3581513279929
1422500	15.3745633129662
1423333	16.3909752979395
1424167	17.4074069851757
1425000	18.4238189701491
1425833	19.4402309551224
1426667	20.4566626423586
1427500	20.4730746273319
1428333	21.4894866123052
1429167	21.5059182995414
1430000	21.5223302845148
1430833	21.5387422694881
1431667	21.5551739567243
1432500	21.5715859416976
1433333	21.5879979266709
1434167	21.6044296139071
1435000	21.6208415988804
1435833	21.6372535838538
1436667	20.65368527109
1437500	20.6700972560633
1438333	19.6865092410366
1439167	19.7029409282728
1440000	18.7193529132461
1440833	18.7357648982194
1441667	17.7521965854556
1442500	16.768608570429
1443333	16.7850205554023
1444167	15.8014522426385
1445000	14.8178642276118
1445833	13.8342762125851
1446667	12.8507078998213
1447500	11.8671198847946
1448333	10.883531869768
1449167	9.89996355700416
1450000	8.91637554197748
1450833	7.93278752695081
1451667	6.949219214187
1452500	6.96563119916033
1453333	5.98204318413365
1454167	4.99847487136984
1455000	5.01488685634317
1455833	4.03129884131649
1456667	4.04773052855269
1457500	3.06414251352601
1458333	3.08055449849933
1459167	3.09698618573553
1460000	2.11339817070885
1460833	2.12981015568217
1461667	2.14624184291837
1462500	1.16265382789169
1463333	1.17906581286501
1464167	1.19549750010121
1465000	1.21190948507453
1465833	1.22832147004786
1466667	0.244753157284052
1467500	0.261165142257376
1468333	1.2775771272307
1469167	0.294008814466894
1470000	0.310420799440216
1470833	0.32683278441354
1471667	0.343264471649736
1472500	0.359676456623058
1473333	0.376088441596382
1474167	0.392520128832578
1475000	-0.5910678861941
1475833	-0.574655901220778
1476667	-0.55822421398458
1477500	0.458187770988742
1478333	0.474599755962064
1479167	0.49103144319826
1480000	0.507443428171584
1480833	0.523855413144906
1481667	-0.459712899618898
1482500	-0.443300914645576
1483333	-0.426888929672252
1484167	-0.410457242436056
1485000	-0.394045257462734
1485833	-0.37763327248941
1486667	0.638798414746786
1487500	0.655210399720108
1488333	0.671622384693432
1489167	0.688054071929628
1490000	-0.29553394309705
1490833	-0.279121958123728
1491667	-0.262690270887532
1492500	-0.246278285914208
1493333	-0.229866300940886
1494167	-0.21343461370469
1495000	-0.197022628731366
1495833	0.819389356241956
1496667	0.835821043478152
1497500	0.852233028451476
1498333	1.8686450134248
1499167	1.88507670066099
1500000	1.90148868563432
1500833	0.91790067060764
1501667	0.934332357843836
1502500	0.950744342817158
1503333	0.967156327790482
1504167	-0.0164119849733222
1505000	0
1505833	-0.0172344233295743
1506667	-0.0344895362429778
1507500	-0.0517239595725538
1508333	-0.0689583829021281
1509167	-0.0862134958155316
1510000	0.896552080854894
1510833	0.879317657525318
1511667	0.862062544611915
1512500	1.84482812128234
1513333	1.82759369795277
1514167	1.81033858503936
1515000	0.793104161709786
1515833	0.775869738380212
1516667	0.758614625466809
1517500	0.741380202137234
1518333	0.72414577880766
1519167	0.706890665894255
1520000	0.689656242564681
1520833	0.672421819235106
1521667	0.655166706321703
1522500	0.637932282992127
1523333	0.620697859662553
1524167	1.60344274674915
1525000	0.586208323419575
1525833	0.56897390009
1526667	0.551718787176595
1527500	0.534484363847021
1528333	0.517249940517447
1529167	0.499994827604043
1530000	-0.517239595725531
1530833	0.465525980944893
1531667	0.448270868031489
1532500	0.431036444701915
1533333	0.413802021372341
1534167	0.396546908458937
1535000	0.379312485129361
1535833	0.362078061799787
1536667	0.344822948886383
1537500	0.327588525556809
1538333	0.310354102227233
1539167	0.29309898931383
1540000	0.275864565984255
1540833	0.258630142654681
1541667	0.241375029741278
1542500	0.224140606411702
1543333	0.206906183082127
1544167	0.189651070168724
1545000	0.172416646839149
1545833	0.155182223509573
1546667	-0.86207288940383
1547500	0.120692687266596
1548333	0.103458263937021
1549167	0.0862031510236179
1550000	0.0689687276940418
1550833	0.0517343043644676
1551667	-0.965520808548936
1552500	-0.98275523187851
1553333	-0.999989655208086
1554167	-1.01724476812149
1555000	-1.03447919145106
1555833	-1.05171361478064
1556667	-1.06896872769404
1557500	-1.08620315102362
1558333	-1.10343757435319
1559167	-0.120692687266596
1560000	-0.13792711059617
1560833	-0.155161533925746
1561667	-0.172416646839149
1562500	-0.189651070168724
1563333	-0.206885493498298
1564167	-1.2241406064117
1565000	-1.24137502974128
1565833	-1.25860945307085
1566667	-0.275864565984255
1567500	-0.29309898931383
1568333	-0.310333412643406
1569167	-0.327588525556809
1570000	-0.344822948886383
1570833	-0.362057372215958
1571667	-0.379312485129361
1572500	-0.396546908458937
1573333	-0.413781331788512
1574167	0.568963555298085
1575000	-0.448270868031489
1575833	-0.465505291361064
1576667	-0.482760404274469
1577500	-0.499994827604043
1578333	-0.517229250933617
1579167	-0.534484363847021
1580000	-0.551718787176595
1580833	-0.568953210506171
1581667	-0.586208323419575
1582500	-0.603442746749149
1583333	-0.620677170078723
1584167	-0.637932282992129
1585000	-0.655166706321703
1585833	-0.672401129651277
1586667	-0.689656242564681
1587500	-0.706890665894255
1588333	-0.724125089223831
1589167	0.258619797862766
1590000	0.241385374533191
1590833	1.22415095120362
1591667	0.206895838290214
1592500	0.189661414960637
1593333	0.172426991631063
1594167	0.15517187871766
1595000	0.137937455388085
1595833	0.120703032058509
1596667	0.103447919145106
1597500	0.0862134958155316
1598333	0.0689790724859574
1599167	0.0517239595725538
1600000	0.0344895362429778
1600833	0.0172551129134035
1601667	0
1602500	0
1603333	0
1604167	0
1605000	0
1605833	0
1606667	1
1607500	1
1608333	1
1609167	0
1610000	0
1610833	0
1611667	0
1612500	1
1613333	1
1614167	1
1615000	1
1615833	1
1616667	1
1617500	1
1618333	1
1619167	1
1620000	0
1620833	0
1621667	0
1622500	0
1623333	1
1624167	1
1625000	1
1625833	1
1626667	1
1627500	1
1628333	0
1629167	0
1630000	1
1630833	1
1631667	1
1632500	0
1633333	1
1634167	1
1635000	0
1635833	0
1636667	1
1637500	1
1638333	1
1639167	1
1640000	1
1640833	1
1641667	0
1642500	0
1643333	1
1644167	1
1645000	1
1645833	0
1646667	0
1647500	0
1648333	0
1649167	0
1650000	0
1650833	0
1651667	0
1652500	0
1653333	0
1654167	0
1655000	0
1655833	0
1656667	0
1657500	0
1658333	0
1659167	0
1660000	0
1660833	1
1661667	1
1662500	1
1663333	1
1664167	1
1665000	1
1665833	0
1666667	0
1667500	0
1668333	0
1669167	0
1670000	1
1670833	1
1671667	1
1672500	1
1673333	1
1674167	0
1675000	-1
1675833	-1
1676667	-1
1677500	-1
1678333	-1
1679167	0
1680000	-1
1680833	-1
1681667	-1
1682500	0
1683333	0
1684167	1
1685000	1
1685833	1
1686667	1
1687500	1
1688333	0
1689167	0
1690000	0
1690833	0
1691667	0
1692500	1
1693333	1
1694167	1
1695000	1
1695833	0
1696667	0
1697500	0
1698333	0
1699167	0.991372443543298
1700000	0.98275523187851
1700833	-0.0258619797862778
1701667	0.96551046375702
1702500	0.956893252092232
1703333	1.94827604042745
1704167	1.93964848397075
1705000	1.93103127230596
1705833	0.92241406064117
1706667	-0.0862134958155316
1707500	-1.09483070748032
1708333	-1.10344791914511
1709167	-1.11207547560181
1710000	-1.12069268726659
1710833	-0.129309898931382
1711667	-0.137937455388084
1712500	-0.146554667052872
1713333	-0.15517187871766
1714167	-0.163799435174361
1715000	-0.172416646839149
1715833	-0.181033858503937
1716667	-0.189661414960639
1717500	-0.198278626625424
1718333	-0.206895838290212
1719167	-0.215523394746914
1720000	-1.2241406064117
1720833	-1.23275781807649
1721667	-1.24138537453319
1722500	-1.25000258619798
1723333	-1.25861979786277
1724167	-1.26724735431947
1725000	-1.27586456598425
1725833	-0.284481777649042
1726667	-0.293109334105743
1727500	-0.301726545770531
1728333	-0.310343757435319
1729167	-0.318971313892021
1730000	-0.327588525556809
1730833	0.663794262778403
1731667	-0.344833293678299
1732500	-0.353450505343083
1733333	-0.362067717007871
1734167	-0.370695273464573
1735000	0.620687514870639
1735833	0.612070303205851
1736667	0.603442746749149
1737500	0.594825535084361
1738333	0.586208323419573
1739167	0.577580766962871
1740000	-0.431036444701913
1740833	-0.439653656366701
1741667	-0.448281212823403
1742500	-0.456898424488191
1743333	-0.465515636152979
1744167	-0.474143192609681
1745000	-1.48276040427447
1745833	-1.49137761593926
1746667	-1.50000517239596
1747500	-0.508622384060743
1748333	-0.517239595725531
1749167	-0.525867152182233
1750000	-0.534484363847021
1750833	0.456898424488191
1751667	0.448270868031489
1752500	0.439653656366701
1753333	-0.568963555298087
1754167	-0.577591111754789
1755000	-0.586208323419573
1755833	-0.594825535084361
1756667	-0.603453091541063
1757500	-0.612070303205851
1758333	-0.620687514870639
1759167	-0.629315071327341
1760000	-0.637932282992129
1760833	-0.646549494656917
1761667	-0.655177051113618
1762500	-1.6637942627784
1763333	-1.67241147444319
1764167	-0.681039030899893
1765000	-0.689656242564681
1765833	-0.698273454229469
1766667	-0.70690101068617
1767500	-0.715518222350958
1768333	0.275864565984254
1769167	0.267237009527552
1770000	0.258619797862767
1770833	0.250002586197979
1771667	0.241375029741278
1772500	0.23275781807649
1773333	0.224140606411702
1774167	-0.784486950045
1775000	-0.793104161709788
1775833	-0.801721373374576
1776667	0.189651070168722
1777500	0.181033858503937
1778333	0.172416646839149
1779167	0.163789090382448
1780000	0.15517187871766
1780833	-0.853445332947128
1781667	-0.86207288940383
1782500	-0.870690101068618
1783333	-0.879307312733403
1784167	0.112065130809892
1785000	0.103447919145108
1785833	0.0948307074803196
1786667	0.0862031510236179
1787500	0.0775859393588298
1788333	0.0689687276940418
1789167	0.0603411712373401
1790000	0.051723959572552
1790833	0.043106747907764
1791667	0.0344791914510623
1792500	0.0258619797862778
1793333	0.0172447681214898
1794167	0.00861721166478802
1795000	0
1795833	0.016449153007013
1796667	0.0329180528963846
1797500	0.0493672059033976
1798333	0.0658163589104106
1799167	0.0822852587997822
1800000	-0.901265588193205
1800833	-0.884816435186192
1801667	-0.86834753529682
1802500	-0.851898382289807
1803333	-0.835449229282798
1804167	-0.818980329393423
1805000	-0.80253117638641
1805833	-0.7860820233794
1806667	-0.769613123490025
1807500	-0.753163970483016
1808333	-0.736714817476003
1809167	-0.720245917586627
1810000	-0.703796764579618
1810833	-0.687347611572605
1811667	-0.67087871168323
1812500	-0.65442955867622
1813333	-0.637980405669207
1814167	-0.621511505779836
1815000	-0.605062352772823
1815833	-0.58861319976581
1816667	-0.572144299876438
1817500	0.444304853130575
1818333	0.460754006137588
1819167	0.477222906026959
1820000	0.493672059033972
1820833	0.510121212040985
1821667	0.526590111930357
1822500	-0.45696073506263
1823333	-0.440511582055617
1824167	-0.424042682166245
1825000	-0.407593529159232
1825833	-0.391144376152219
1826667	-0.374675476262848
1827500	-0.358226323255835
1828333	-0.341777170248825
1829167	-0.32530827035945
1830000	-0.308859117352437
1830833	-0.292409964345428
1831667	-0.275941064456052
1832500	0.740508088550961
1833333	0.75695724155797
1834167	0.773426141447345
1835000	0.789875294454355
1835833	0.806324447461368
1836667	-0.177206652649257
1837500	-0.160757499642248
1838333	-0.144308346635235
1839167	-0.127839446745863
1840000	-0.11139029373885
1840833	-0.0949411407318372
1841667	-0.0784722408424656
1842500	0.937976912164547
1843333	0.95442606517156
1844167	0.970894965060932
1845000	0.987344118067945
1845833	1.00379327107496
1846667	0.0202621709643296
1847500	0.0367113239713426
1848333	0.0531604769783538
1849167	0.0696293768677272
1850000	1.08607852987474
1850833	1.10252768288175
1851667	1.11670721360852
1852500	1.13019011196878
1853333	1.14367301032904
1854167	1.1571720946417
1855000	1.17065499300196
1855833	1.18413789136221
1856667	0.197636975674882
1857500	0.211119874035138
1858333	-0.775397227604607
1859167	-0.761898143291937
1860000	-0.748415244931682
1860833	-0.734932346571426
1861667	-0.721433262258758
1862500	-0.707950363898503
1863333	-1.69446746553825
1864167	-1.68096838122558
1865000	-1.66748548286532
1865833	-1.65400258450507
1866667	-2.6405035001924
1867500	-2.62702060183214
1868333	-2.61353770347189
1869167	-2.60003861915922
1870000	-2.58655572079896
1870833	-3.57307282243871
1871667	-4.55957373812604
1872500	-4.54609083976578
1873333	-5.53260794140553
1874167	-6.51910885709286
1875000	-7.5056259587326
1875833	-8.49214306037235
1876667	-8.47864397605968
1877500	-9.46516107769942
1878333	-11.4516781793392
1879167	-12.4381790950265
1880000	-14.4246961966662
1880833	-16.411213298306
1881667	-17.3977142139933
1882500	-18.3842313156331
1883333	-19.3707484172728
1884167	-20.3572493329601
1885000	-22.3437664345999
1885833	-24.3302835362396
1886667	-26.316784451927
1887500	-27.3033015535667
1888333	-29.2898186552064
1889167	-31.2763195708938
1890000	-34.2628366725335
1890833	-36.2493537741733
1891667	-38.2358546898606
1892500	-41.2223717915003
1893333	-44.2088888931401
1894167	-47.1953898088274
1895000	-49.1819069104672
1895833	-52.1684240121069
1896667	-54.1549249277942
1897500	-56.141442029434
1898333	-59.1279591310737
1899167	-61.1144600467611
1900000	-64.1009771484008
1900833	-66.0874942500406
1901667	-69.0739951657279
1902500	-72.0605122673676
1903333	-74.0470293690074
1904167	-77.0335302846947
1905000	-79.0200473863345
1905833	-82.0065644879742
1906667	-84.9930654036615
1907500	-86.9795825053013
1908333	-88.966099606941
1909167	-90.9526005226283
1910000	-91.9391176242681
1910833	-93.9256347259078
1911667	-93.9121356415952
1912500	-94.8986527432349
1913333	-95.8851698448747
1914167	-96.871670760562
1915000	-96.8581878622017
1915833	-97.8447049638415
1916667	-97.8312058795288
1917500	-97.8177229811685
1918333	-96.8042400828083
1919167	-95.7907409984956
1920000	-95.7772581001354
1920833	-94.7637752017751
1921667	-93.7502761174624
1922500	-92.7367932191022
1923333	-90.7233103207419
1924167	-89.7098112364293
1925000	-86.696328338069
1925833	-84.6828454397088
1926667	-82.6693463553961
1927500	-79.6558634570358
1928333	-76.6423805586756
1929167	-74.6288814743629
1930000	-71.6153985760026
1930833	-68.6019156776424
1931667	-66.5884165933297
1932500	-63.5749336949695
1933333	-60.5614507966092
1934167	-58.5479517122965
1935000	-55.5344688139363
1935833	-52.520985915576
1936667	-49.5074868312634
1937500	-47.4940039329031
1938333	-44.4805210345429
1939167	-42.4670219502302
1940000	-39.4535390518699
1940833	-36.4400561535097
1941667	-34.426557069197
1942500	-31.4130741708368
1943333	-29.3995912724765
1944167	-27.3860921881638
1945000	-25.3726092898036
1945833	-23.3591263914433
1946667	-21.3456273071306
1947500	-19.3321444087704
1948333	-17.3186615104101
1949167	-16.3051624260975
1950000	-14.2916795277372
1950833	-13.278196629377
1951667	-12.2646975450643
1952500	-10.251214646704
1953333	-9.23773174834378
1954167	-8.22423266403111
1955000	-7.21074976567085
1955833	-6.1972668673106
1956667	-5.18376778299793
1957500	-4.17028488463767
1958333	-3.15680198627742
1959167	-3.14330290196475
1960000	-2.12982000360449
1960833	-2.11633710524424
1961667	-1.10283802093157
1962500	-0.0893551225713143
1963333	-0.075872224211059
1964167	-0.0623731398983907
1965000	-0.0488902415381354
1965833	0.96459265682212
1966667	0.97809174113479
1967500	0.991574639495045
1968333	1.0050575378553
1969167	1.01855662216797
1970000	1.03203952052822
1970833	1.04552241888848
1971667	1.05902150320115
1972500	1.0725044015614
1973333	0.0859872999216602
1974167	0.0994863842343285
1975000	0.112969282594584
1975833	0.126452180954839
1976667	0.139951265267509
1977500	0.153434163627765
1978333	0.16691706198802
1979167	0.180416146300688
1980000	1.19389904466094
1980833	1.2073819430212
1981667	1.22088102733387
1982500	1.23436392569412
1983333	1.24784682405438
1984167	1.24580692871544
1985000	1.22347026043195
1985833	0.201133592148466
1986667	-0.821229890862856
1987500	-0.843566559146346
1988333	-1.86590322742984
1989167	-1.88826671044116
1990000	-1.91060337872465
1990833	-1.93294004700814
1991667	-1.95530353001946
1992500	-1.97764019830295
1993333	-2.99997686658644
1994167	-3.02234034959776
1995000	-3.04467701788125
1995833	-4.06701368616474
1996667	-4.08937716917606
1997500	-5.11171383745955
1998333	-5.13405050574304
1999167	-5.15641398875436
2000000	-6.17875065703785
2000833	-7.20108732532134
2001667	-7.22345080833266
2002500	-8.24578747661615
2003333	-9.26812414489964
2004167	-10.290487627911
2005000	-11.3128242961945
2005833	-12.3351609644779
2006667	-13.3575244474893
2007500	-13.3798611157728
2008333	-14.4021977840562
2009167	-15.4245612670676
2010000	-17.4468979353511
2010833	-18.4692346036345
2011667	-19.4915980866459
2012500	-21.5139347549294
2013333	-22.5362714232128
2014167	-23.5586349062242
2015000	-25.5809715745077
2015833	-26.6033082427911
2016667	-28.6256717258025
2017500	-29.648008394086
2018333	-31.6703450623694
2019167	-33.6927085453808
2020000	-35.7150452136643
2020833	-36.7373818819477
2021667	-37.7597453649591
2022500	-39.7820820332426
2023333	-41.804418701526
2024167	-43.8267821845374
2025000	-45.8491188528209
2025833	-47.8714555211044
2026667	-48.8938190041157
2027500	-50.9161556723992
2028333	-52.9384923406827
2029167	-54.960855823694
2030000	-55.9831924919775
2030833	-58.0055291602609
2031667	-59.0278926432723
2032500	-61.0502293115558
2033333	-62.0725659798393
2034167	-63.0949294628506
2035000	-65.1172661311341
2035833	-66.1396027994176
2036667	-66.1619662824289
2037500	-67.1843029507124
2038333	-68.2066396189959
2039167	-69.2290031020072
2040000	-70.2513397702907
2040833	-70.2736764385742
2041667	-71.2960399215855
2042500	-71.318376589869
2043333	-71.3407132581525
2044167	-71.3630767411638
2045000	-72.3854134094473
2045833	-72.4077500777308
2046667	-71.4301135607421
2047500	-71.4524502290256
2048333	-70.4747868973091
2049167	-70.4971503803204
2050000	-70.5194870486039
2050833	-70.5418237168874
2051667	-69.5641871998987
2052500	-69.5865238681822
2053333	-68.6088605364657
2054167	-67.631224019477
2055000	-66.6535606877605
2055833	-64.675897356044
2056667	-63.6982608390553
2057500	-63.7205975073388
2058333	-62.7429341756223
2059167	-61.7652976586336
2060000	-59.7876343269171
2060833	-58.8099709952006
2061667	-57.8323344782119
2062500	-55.8546711464954
2063333	-54.8770078147789
2064167	-52.8993712977902
2065000	-51.9217079660737
2065833	-49.9440446343572
2066667	-48.9664081173685
2067500	-46.988744785652
2068333	-46.0110814539355
2069167	-44.0334449369468
2070000	-43.0557816052303
2070833	-42.0781182735138
2071667	-40.1004817565251
2072500	-39.1228184248086
2073333	-37.1451550930921
2074167	-35.1675185761034
2075000	-34.1898552443869
2075833	-32.2121919126704
2076667	-31.2345553956817
2077500	-30.2568920639652
2078333	-29.2792287322487
2079167	-28.30159221526
2080000	-27.3239288835435
2080833	-25.346265551827
2081667	-24.3686290348383
2082500	-23.3909657031218
2083333	-22.4133023714053
2084167	-20.4356658544166
2085000	-19.4580025227001
2085833	-18.4803391909836
2086667	-17.5027026739949
2087500	-16.5250393422784
2088333	-15.5473760105619
2089167	-14.5697394935732
2090000	-13.5920761618567
2090833	-12.6144128301402
2091667	-11.6367763131515
2092500	-11.659112981435
2093333	-10.6814496497185
2094167	-9.7038131327298
2095000	-8.72614980101329
2095833	-8.74848646929678
2096667	-7.7708499523081
2097500	-6.79318662059159
2098333	-6.81552328887508
2099167	-5.8378867718864
2100000	-5.86022344016989
2100833	-4.88256010845338
2101667	-4.9049235914647
2102500	-3.92726025974819
2103333	-3.94959692803168
2104167	-2.971960411043
2105000	-2.99429707932649
2105833	-2.01663374760998
2106667	-2.03899723062131
2107500	-1.06133389890479
2108333	-1.08367056718829
2109167	-1.1060340501996
2110000	-0.128370718483094
2110833	-0.150707386766584
2111667	-0.173070869777906
2112500	-0.195407538061396
2113333	0.782255793655114
2114167	0.759892310643792
2115000	0.737555642360302
2115833	0.715218974076812
2116667	0.692855491065494
2117500	0.670518822782004
2118333	0.648182154498514
2119167	0.625818671487192
2120000	1.6034820032037
2120833	1.58114533492021
2121667	1.55878185190889
2122500	1.5364451836254
2123333	1.51410851534191
2124167	1.48838791025427
2125000	1.43785178626746
2125833	1.38731566228064
2126667	1.336718870678
2127500	1.28618274669119
2128333	2.23564662270437
2129167	2.18504983110173
2130000	2.13451370711491
2130833	1.0839775831281
2131667	1.03338079152545
2132500	0.98284466753864
2133333	0.932308543551827
2134167	0.88171175194918
2135000	0.831175627962367
2135833	0.780639503975554
2136667	0.730042712372907
2137500	0.679506588386094
2138333	0.628970464399281
2139167	0.578373672796637
2140000	0.527837548809821
2140833	0.477301424823008
2141667	0.426704633220364
2142500	-0.623831490766452
2143333	0.325632385246735
2144167	0.275035593644091
2145000	0.224499469657275
2145833	0.173963345670462
2146667	0.123366554067818
2147500	0.0728304300810017
2148333	0.0222943060941887
2149167	-0.0283024855084548
2150000	-0.0788386094952678
2150833	-0.129374733482084
2151667	0.820028474915272
2152500	0.769492350928459
2153333	0.718956226941643
2154167	0.668359435338999
2155000	0.617823311352186
2155833	-0.43271281263463
2156667	-0.483309604237274
2157500	-1.53384572822409
2158333	-1.5843818522109
2159167	-0.634978643813547
2160000	-0.68551476780036
2160833	-0.736050891787173
2161667	-0.78664768338982
2162500	-0.837183807376633
2163333	-0.887719931363446
2164167	-0.938316722966093
2165000	-0.988852846952906
2165833	-1.03938897093972
2166667	-1.08998576254237
2167500	-1.14052188652918
2168333	-1.19105801051599
2169167	-1.24165480211864
2170000	-1.29219092610545
2170833	-0.342727050092265
2171667	-0.393323841694908
2172500	-0.443859965681725
2173333	-0.494396089668538
2174167	-0.544992881271181
2175000	-0.595529005257994
2175833	-0.646065129244811
2176667	-0.696661920847454
2177500	-0.747198044834271
2178333	-0.797734168821084
2179167	-0.848330960423727
2180000	-0.89886708441054
2180833	0.0505967916026435
2181667	0
2182500	-0.982765398382057
2183333	-0.965530796764117
2184167	-0.948275505348313
2185000	-0.93104090373037
2185833	-0.913806302112427
2186667	-0.896551010696626
2187500	-0.879316409078683
2188333	-0.86208180746074
2189167	-1.84482651604494
2190000	-1.827591914427
2190833	-0.810357312809053
2191667	-0.793102021393253
2192500	-0.775867419775309
2193333	-0.758632818157366
2194167	-0.741377526741562
2195000	-0.724142925123623
2195833	-0.706908323505679
2196667	-1.68965303208988
2197500	-1.67241843047194
2198333	-1.65518382885399
2199167	-1.63792853743819
2200000	-1.62069393582025
2200833	-1.60345933420231
2201667	-1.5862040427865
2202500	-1.56896944116856
2203333	-1.55173483955062
2204167	-1.53447954813482
2205000	-1.51724494651687
2205833	-1.50001034489893
2206667	-1.48275505348313
2207500	-1.46552045186519
2208333	-1.44828585024724
2209167	-0.431030558831441
2210000	-0.413795957213498
2210833	-0.396561355595555
2211667	-0.379306064179755
2212500	-0.362071462561811
2213333	-1.34483686094387
2214167	-1.32758156952806
2215000	-1.31034696791012
2215833	-1.29311236629218
2216667	-1.27585707487638
2217500	-0.258622473258438
2218333	-0.241387871640494
2219167	-0.224132580224691
2220000	-1.20689797860675
2220833	-1.18966337698881
2221667	-1.172408085573
2222500	-1.15517348395506
2223333	-1.13793888233712
2224167	-1.12068359092132
2225000	-1.10344898930337
2225833	-1.08621438768543
2226667	-1.06895909626963
2227500	-1.05172449465169
2228333	-1.03448989303374
2229167	-1.01723460161794
2230000	-1
2230833	-0.982765398382057
2231667	-0.965510106966256
2232500	-0.948275505348313
2233333	-0.93104090373037
2234167	-0.91378561231457
2235000	-0.896551010696626
2235833	-0.879316409078683
2236667	-0.862061117662879
2237500	0.15517348395506
2238333	0.172408085573004
2239167	0.189663376988808
2240000	0.206897978606747
2240833	-0.775867419775309
2241667	-0.758612128359506
2242500	-0.741377526741562
2243333	0.275857074876377
2244167	0.293112366292181
2245000	0.310346967910125
2245833	0.327581569528064
2246667	0.344836860943868
2247500	-0.637928537438189
2248333	-0.620693935820245
2249167	-0.603438644404445
2250000	-0.586204042786502
2250833	-0.568969441168559
2251667	0.448285850247242
2252500	0.465520451865185
2253333	0.482755053483128
2254167	0.500010344898932
2255000	1.51724494651687
2255833	1.53447954813482
2256667	0.551734839550619
2257500	0.568969441168559
2258333	0.586204042786502
2259167	0.603459334202306
2260000	0.620693935820245
2260833	0.637928537438189
2261667	0.655183828853993
2262500	0.672418430471936
2263333	-0.310346967910125
2264167	-0.293091676494321
2265000	-0.275857074876377
2265833	-0.258622473258438
2266667	-0.241367181842634
2267500	-0.224132580224691
2268333	-0.206897978606747
2269167	-0.189642687190947
2270000	-0.172408085573004
2270833	-0.15517348395506
2271667	-0.13791819253926
2272500	-0.120683590921317
2273333	-0.103448989303374
2274167	-0.0861936978875733
2275000	-0.06895909626963
2275833	-0.0517244946516868
2276667	-0.0344692032358829
2277500	-0.0172346016179432
2278333	0
2279167	-0.0609600874817637
2280000	0.878152918666544
2280833	0.817265924814855
2281667	0.756305837333088
2282500	0.695418843481399
2283333	0.634531849629706
2284167	0.573571762147942
2285000	1.51268476829625
2285833	1.45179777444456
2286667	1.39083768696279
2287500	1.3299506931111
2288333	1.26906369925941
2289167	1.20810361177765
2290000	1.14721661792596
2290833	1.08632962407427
2291667	1.0253695365925
2292500	0.964482542740811
2293333	0.903595548889122
2294167	0.842635461407355
2295000	0.781748467555666
2295833	0.720861473703973
2296667	-0.340098613777791
2297500	-0.400985607629483
2298333	-0.461872601481172
2299167	-0.522832688962936
2300000	-0.583719682814628
2300833	-0.644606676666321
2301667	-0.705566764148085
2302500	0.233546242000223
2303333	0.172659248148534
2304167	0.11169916066677
2305000	1.05081216681508
2305833	0.989925172963389
2306667	0.928965085481622
2307500	-0.131921908370067
2308333	-0.19280890222176
2309167	-0.253768989703524
2310000	-0.314655983555216
2310833	0.624457022593095
2311667	0.563496935111331
2312500	0.502609941259639
2313333	0.441722947407946
2314167	0.380762859926183
2315000	0.31987586607449
2315833	0.258988872222801
2316667	0.198028784741037
2317500	0.186756716547681
2318333	0.177183858711899
2319167	0.167599508849904
2320000	1.15802665101412
2320833	1.14845379317834
2321667	1.13886944331635
2322500	2.12929658548057
2323333	2.11972372764479
2324167	3.11013937778279
2325000	3.10056651994701
2325833	3.09099366211123
2326667	4.08140931224923
2327500	4.07183645441345
2328333	4.06226359657767
2329167	4.05267924671568
2330000	5.0431063888799
2330833	6.03353353104411
2331667	7.02394918118212
2332500	8.01437632334634
2333333	9.00480346551056
2334167	9.99521911564856
2335000	10.9856462578128
2335833	11.976073399977
2336667	12.966489050115
2337500	13.9569161922792
2338333	14.9473433344434
2339167	16.9377589845814
2340000	17.9281861267457
2340833	18.9186132689099
2341667	20.9090289190479
2342500	21.8994560612121
2343333	23.8898832033763
2344167	25.8802988535143
2345000	27.8707259956785
2345833	29.8611531378428
2346667	31.8515687879808
2347500	33.841995930145
2348333	36.8324230723092
2349167	39.8228387224472
2350000	42.8132658646114
2350833	45.8036930067757
2351667	49.7941086569137
2352500	53.7845357990779
2353333	56.7749629412421
2354167	61.7653785913801
2355000	65.7558057335443
2355833	71.7462328757085
2356667	76.7366485258465
2357500	82.7270756680108
2358333	87.717502810175
2359167	93.707918460313
2360000	99.6983456024772
2360833	106.688772744641
2361667	114.679188394779
2362500	122.669615536944
2363333	131.660042679108
2364167	140.650458329246
2365000	149.64088547141
2365833	159.631312613574
2366667	170.621728263712
2367500	182.612155405877
2368333	194.602582548041
2369167	207.592998198179
2370000	220.583425340343
2370833	235.573852482507
2371667	250.564268132645
2372500	266.554695274809
2373333	284.545122416974
2374167	302.535538067112
2375000	321.525965209276
2375833	341.51639235144
2376667	362.506808001578
2377500	385.497235143742
2378333	409.487662285907
2379167	434.478077936045
2380000	460.468505078209
2380833	488.458932220373
2381667	517.449347870511
2382500	548.439775012675
2383333	581.430202154839
2384167	614.420617804977
2385000	650.411044947142
2385833	687.401472089306
2386667	726.391887739444
2387500	766.382314881608
2388333	808.372742023772
2389167	852.36315767391
2390000	897.353584816075
2390833	944.344011958239
2391667	994.334427608377
2392500	1045.32485475054
2393333	1098.31528189271
2394167	1153.30569754284
2395000	1209.29612468501
2395833	1267.28655182717
2396667	1327.27696747731
2397500	1389.26739461947
2398333	1453.25782176164
2399167	1518.24823741178
2400000	1584.23866455394
2400833	1651.2290916961
2401667	1719.21950734624
2402500	1789.20993448841
2403333	1859.20036163057
2404167	1930.19077728071
2405000	2002.18120442287
2405833	2074.17163156504
2406667	2145.16204721518
2407500	2217.15247435734
2408333	2288.1429014995
2409167	2358.13331714964
2410000	2427.12374429181
2410833	2495.11417143397
2411667	2561.10458708411
2412500	2625.09501422627
2413333	2687.08544136844
2414167	2747.07585701857
2415000	2804.06628416074
2415833	2858.0567113029
2416667	2909.04712695304
2417500	2956.03755409521
2418333	2998.02798123737
2419167	3037.01839688751
2420000	3071.00882402967
2420833	3100.99925117184
2421667	3125.98966682197
2422500	3145.98009396414
2423333	3161.9705211063
2424167	3171.96093675644
2425000	3176.9513638986
2425833	3175.94179104077
2426667	3169.93220669091
2427500	3158.92263383307
2428333	3142.91306097524
2429167	3120.90347662537
2430000	3093.89390376754
2430833	3062.8843309097
2431667	3025.87474655984
2432500	2984.865173702
2433333	2938.85560084417
2434167	2888.84601649431
2435000	2835.83644363647
2435833	2777.82687077863
2436667	2716.81728642877
2437500	2653.80771357094
2438333	2586.7981407131
2439167	2517.78855636324
2440000	2445.7789835054
2440833	2372.76941064757
2441667	2297.75982629771
2442500	2221.75025343987
2443333	2144.74068058203
2444167	2066.73109623217
2445000	1988.72152337434
2445833	1910.7119505165
2446667	1831.70236616664
2447500	1754.6927933088
2448333	1677.68322045097
2449167	1600.6736361011
2450000	1525.66406324327
2450833	1452.65449038543
2451667	1380.64490603557
2452500	1310.63533317774
2453333	1241.6257603199
2454167	1174.61617597004
2455000	1110.6066031122
2455833	1048.59703025437
2456667	987.587445904504
2457500	929.577873046668
2458333	874.568300188833
2459167	821.558715838971
2460000	770.549142981135
2460833	721.539570123299
2461667	674.529985773437
2462500	629.520412915601
2463333	587.510840057766
2464167	547.501255707904
2465000	509.491682850068
2465833	473.482109992232
2466667	440.47252564237
2467500	409.462952784534
2468333	379.453379926698
2469167	351.443795576836
2470000	325.434222719001
2470833	301.424649861165
2471667	278.415065511303
2472500	257.405492653467
2473333	238.395919795631
2474167	219.386335445769
2475000	202.376762587934
2475833	187.367189730098
2476667	173.357605380236
2477500	159.3480325224
2478333	147.338459664564
2479167	135.328875314702
2480000	125.319302456866
2480833	115.309729599031
2481667	105.300145249169
2482500	97.2905723913329
2483333	89.2809995334971
2484167	82.2714151836351
2485000	76.2618423257993
2485833	70.2522694679635
2486667	65.2426851181015
2487500	60.2331122602658
2488333	55.22353940243
2489167	51.213955052568
2490000	47.2043821947322
2490833	44.1948093368964
2491667	40.1852249870344
2492500	37.1756521291987
2493333	35.1660792713629
2494167	32.1564949215009
2495000	30.1469220636651
2495833	28.1373492058293
2496667	26.1277648559673
2497500	25.1181919981315
2498333	23.1086191402958
2499167	22.0990347904338
2500000	20.089461932598
2500833	19.0798890747622
2501667	17.0703047249002
2502500	16.0607318670644
2503333	15.0511590092286
2504167	14.0415746593666
2505000	14.0320018015309
2505833	13.0224289436951
2506667	12.0128445938331
2507500	12.0032717359973
2508333	10.9936988781615
2509167	9.98411452829953
2510000	9.97454167046375
2510833	8.96496881262797
2511667	7.95538446276597
2512500	7.94581160493019
2513333	6.93623874709441
2514167	6.92665439723242
2515000	5.91708153939664
2515833	5.90750868156086
2516667	4.89792433169886
2517500	4.88835147386308
2518333	4.8787786160273
2519167	3.8691942661653
2520000	3.85962140832952
2520833	3.85004855049374
2521667	3.84046420063174
2522500	2.83089134279597
2523333	2.82131848496018
2524167	2.81173413509819
2525000	2.80216127726241
2525833	2.79258841942663
2526667	2.78300406956463
2527500	2.77343121172885
2528333	2.76385835389307
2529167	2.75427400403107
2530000	2.74470114619529
2530833	2.73512828835951
2531667	1.72554393849752
2532500	1.71597108066173
2533333	1.70639822282595
2534167	0.696813872963958
2535000	0.687241015128176
2535833	0.677668157292395
2536667	0.668083807430399
2537500	0.658510949594618
2538333	0.648938091758836
2539167	0.639353741896841
2540000	0.629780884061063
2540833	0.620208026225278
2541667	0.610623676363286
2542500	0.601050818527504
2543333	0.591477960691723
2544167	-0.418106389170273
2545000	-0.427679247006054
2545833	-0.437252104841836
2546667	-0.446836454703831
2547500	-0.456409312539613
2548333	0.534017829624606
2549167	0.524433479762614
2550000	0.514860621926832
2550833	-0.485915609112919
2551667	-0.475568796285788
2552500	-0.46523438970905
2553333	-0.454899983132314
2554167	-0.444553170305184
2555000	-0.434218763728449
2555833	-0.42388435715171
2556667	0.58646245567542
2557500	0.596796862252155
2558333	0.607131268828894
2559167	0.617478081656021
2560000	0.62781248823276
2560833	0.638146894809495
2561667	-0.351506292363375
2562500	-0.341171885786636
2563333	-0.330837479209901
2564167	-0.320490666382771
2565000	-0.310156259806035
2565833	-0.299821853229297
2566667	-0.289475040402166
2567500	-0.279140633825431
2568333	0.731193772751308
2569167	0.741540585578434
2570000	0.751874992155173
2570833	0.762209398731908
2571667	-0.227443788440961
2572500	-0.217109381864223
2573333	-0.206774975287487
2574167	-0.196428162460357
2575000	-0.186093755883622
2575833	-0.175759349306883
2576667	-0.165412536479753
2577500	-0.155078129903018
2578333	0.855256276673721
2579167	0.865603089500848
2580000	0.875937496077587
2580833	0.886271902654322
2581667	0.896618715481452
2582500	-0.0930468779418092
2583333	-0.082712471365074
2584167	-0.0723656585379437
2585000	-0.0620312519612085
2585833	-0.0516968453844697
2586667	-0.0413500325573395
2587500	-0.0310156259806043
2588333	-0.0206812194038655
2589167	-0.0103344065767388
2590000	0
2590833	1.00861721166479
2591667	0.0172447681214898
2592500	0.0258619797862778
2593333	0.0344791914510623
2594167	-0.956893252092232
2595000	-0.948276040427448
2595833	-0.93965882876266
2596667	-0.931031272305958
2597500	-0.92241406064117
2598333	-0.913796848976382
2599167	-0.90516929251968
2600000	-0.896552080854892
2600833	-0.887934869190108
2601667	-0.879307312733406
2602500	-0.870690101068618
2603333	-0.86207288940383
2604167	-0.853445332947128
2605000	-0.84482812128234
2605833	-0.836210909617552
2606667	-0.827583353160851
2607500	-0.818966141496063
2608333	-0.810348929831278
2609167	-0.801721373374576
2610000	-1.79310416170979
2610833	-1.784486950045
2611667	-1.7758593935883
2612500	-1.76724218192351
2613333	-0.758624970258722
2614167	-0.749997413802021
2615000	-0.741380202137233
2615833	-0.732762990472448
2616667	0.275864565984254
2617500	0.284481777649042
2618333	0.29309898931383
2619167	-0.698273454229469
2620000	-0.689656242564681
2620833	-0.681039030899893
2621667	-0.672411474443191
2622500	-0.663794262778403
2623333	-0.655177051113618
2624167	-0.646549494656917
2625000	-0.637932282992129
2625833	-0.629315071327341
2626667	-0.620687514870639
2627500	-0.612070303205851
2628333	-0.603453091541063
2629167	-0.594825535084361
2630000	-0.586208323419573
2630833	-0.577591111754789
2631667	-0.568963555298087
2632500	-0.560346343633299
2633333	0.448270868031489
2634167	0.456898424488191
2635000	0.465515636152979
2635833	0.474132847817767
2636667	0.482760404274469
2637500	0.491377615939257
2638333	0.499994827604041
2639167	0.508622384060743
2640000	0.517239595725531
2640833	0.525856807390319
2641667	0.534484363847021
2642500	0.543101575511809
2643333	0.551718787176597
2644167	0.560346343633299
2645000	0.568963555298087
2645833	1.57758076696287
2646667	1.58620832341957
2647500	1.59482553508436
2648333	1.60344274674915
2649167	1.61207030320585
2650000	1.62068751487064
2650833	1.62930472653543
2651667	1.63793228299213
2652500	1.64654949465692
2653333	1.6551667063217
2654167	1.6637942627784
2655000	1.67241147444319
2655833	1.68102868610798
2656667	1.68965624256468
2657500	0.698273454229469
2658333	0.706890665894257
2659167	0.715518222350958
2660000	-0.275864565984254
2660833	-0.267247354319469
2661667	0.741380202137233
2662500	0.749997413802021
2663333	0.758614625466809
2664167	0.76724218192351
2665000	0.775859393588298
2665833	0.784476605253086
2666667	0.793104161709788
2667500	0.801721373374576
2668333	0.810338585039361
2669167	0.818966141496063
2670000	0.827583353160851
2670833	0.836200564825639
2671667	0.84482812128234
2672500	0.853445332947128
2673333	0.862062544611916
2674167	0.870690101068618
2675000	0.879307312733403
2675833	0.887924524398191
2676667	0.896552080854892
2677500	0.90516929251968
2678333	0.913786504184468
2679167	0.92241406064117
2680000	0.931031272305958
2680833	0.939648483970746
2681667	0.948276040427448
2682500	0.956893252092236
2683333	0.96551046375702
2684167	0.974138020213722
2685000	0.98275523187851
2685833	-0.00862755645670177
2686667	0
2687500	-0.0258519024269148
2688333	-0.0517038048538261
2689167	-0.0775867419775302
2690000	-0.103438644404445
2690833	0.870709453168644
2691667	0.84482651604494
2692500	0.818974613618025
2693333	0.79312271119111
2694167	0.767239774067406
2695000	0.741387871640494
2695833	0.71553596921358
2696667	0.689653032089876
2697500	0.663801129662964
2698333	0.637949227236049
2699167	0.612066290112345
2700000	0.586214387685434
2700833	0.560362485258519
2701667	0.534479548134815
2702500	0.5086276457079
2703333	0.482775743280989
2704167	0.456892806157285
2705000	0.43104090373037
2705833	-0.594810998696541
2706667	-0.620693935820245
2707500	-0.64654583824716
2708333	0.327602259325925
2709167	0.301719322202221
2710000	0.275867419775309
2710833	1.25001551734839
2711667	0.224132580224691
2712500	0.198280677797779
2713333	0.172428775370864
2714167	0.14654583824716
2715000	0.120693935820245
2715833	-0.905157966606666
2716667	-0.93104090373037
2717500	-0.956892806157285
2718333	0.017255291415804
2719167	-0.0086276457079002
2720000	-0.034479548134815
2720833	-0.0603314505617263
2721667	-1.08621438768543
2722500	-1.11206629011235
2723333	-1.13791819253926
2724167	-1.16380112966296
2725000	-1.18965303208988
2725833	-1.21550493451679
2726667	-1.24138787164049
2727500	-1.26723977406741
2728333	-1.29309167649432
2729167	-1.31897461361802
2730000	-1.34482651604494
2730833	-1.37067841847185
2731667	-1.39656135559555
2732500	-0.42241325802247
2733333	-0.448265160449381
2734167	-0.474148097573085
2735000	-0.5
2735833	-0.525851902426915
2736667	-0.551734839550619
2737500	-0.57758674197753
2738333	-1.60343864440445
2739167	-1.62932158152815
2740000	-1.65517348395506
2740833	-1.68102538638198
2741667	-1.70690832350568
2742500	-1.73276022593259
2743333	-1.75861212835951
2744167	-1.78449506548321
2745000	-1.81034696791012
2745833	-1.83619887033704
2746667	-0.86208180746074
2747500	-0.887933709887655
2748333	-1.91378561231457
2749167	-1.93966854943827
2750000	-0.965520451865185
2750833	-0.9913723542921
2751667	-1.0172552914158
2752500	-1.04310719384272
2753333	-0.06895909626963
2754167	-0.0948420333933342
2755000	-0.120693935820249
2755833	-0.14654583824716
2756667	-0.172428775370864
2757500	-0.198280677797779
2758333	0.775867419775309
2759167	-0.250015517348395
2760000	0.724132580224691
2760833	0.698280677797779
2761667	0.672397740674075
2762500	-0.35345416175284
2763333	-0.379306064179751
2764167	-0.405189001303459
2765000	-0.43104090373037
2765833	-0.456892806157285
2766667	0.517224256719011
2767500	0.4913723542921
2768333	0.465520451865185
2769167	0.439637514741481
2770000	0.41378561231457
2770833	0.387933709887655
2771667	0.362050772763951
2772500	0.336198870337036
2773333	-0.689653032089876
2774167	-0.71553596921358
2775000	-0.741387871640494
2775833	0.232760225932594
2776667	0.20687728880889
2777500	0.181025386381975
2778333	0.15517348395506
2779167	0.129290546831356
2780000	0.103438644404445
2780833	0.0775867419775302
2781667	0.0517038048538261
2782500	0.0258519024269148
2783333	0
2784167	-0.00769844969469347
2785000	0.984612331365643
2785833	0.976923112425983
2786667	0.969224662731289
2787500	0.961535443791625
2788333	-0.0461537751480385
2789167	-0.053852224842732
2790000	0.938458556217604
2790833	0.930769337277944
2791667	0.923070887583251
2792500	0.915381668643587
2793333	0.907692449703923
2794167	0.899994000009229
2795000	0.892304781069569
2795833	0.884615562129905
2796667	0.876917112435212
2797500	0.869227893495548
2798333	0.861538674555884
2799167	0.853840224861191
2800000	1.84615100592153
2800833	1.83846178698187
2801667	1.83076333728717
2802500	1.82307411834751
2803333	1.81538489940785
2804167	1.80768644971316
2805000	1.79999723077349
2805833	0.792308011833828
2806667	0.784609562139135
2807500	0.776920343199471
2808333	0.769231124259807
2809167	0.761532674565117
2810000	-0.246156544374546
2810833	0.74615423668579
2811667	0.738455786991096
2812500	0.730766568051433
2813333	0.723077349111769
2814167	0.715378899417079
2815000	0.707689680477415
2815833	0.700000461537751
2816667	0.692302011843058
2817500	0.684612792903394
2818333	1.67692357396373
2819167	1.66922512426904
2820000	0.661535905329377
2820833	0.653846686389713
2821667	0.646148236695019
2822500	0.638459017755359
2823333	0.630769798815695
2824167	1.623071349121
2825000	1.61538213018134
2825833	1.60769291124167
2826667	0.599994461546981
2827500	0.592305242607321
2828333	0.584616023667657
2829167	0.576917573972963
2830000	0.569228355033299
2830833	1.56153913609364
2831667	1.55384068639894
2832500	1.54615146745928
2833333	1.53846224851962
2834167	1.53076379882492
2835000	1.52307457988526
2835833	1.5153853609456
2836667	1.50768691125091
2837500	2.49999769231124
2838333	2.49230847337158
2839167	1.48461002367689
2840000	1.47692080473722
2840833	1.46923158579756
2841667	1.46153313610287
2842500	1.4538439171632
2843333	1.44615469822354
2844167	1.43845624852885
2845000	1.43076702958918
2845833	1.42307781064952
2846667	1.41537936095483
2847500	1.40769014201517
2848333	0.400000923075503
2849167	0.392302473380809
2850000	0.384613254441145
2850833	0.376924035501485
2851667	0.369225585806792
2852500	0.361536366867128
2853333	0.353847147927464
2854167	0.346148698232771
2855000	0.33845947929311
2855833	0.330770260353447
2856667	1.32307181065875
2857500	1.31538259171909
2858333	1.30769337277943
2859167	1.29999492308473
2860000	1.29230570414507
2860833	1.28461648520541
2861667	1.27691803551071
2862500	0.269228816571051
2863333	0.261539597631387
2864167	1.2538411479367
2865000	1.24615192899703
2865833	0.23846271005737
2866667	0.230764260362676
2867500	0.223075041423012
2868333	0.215385822483348
2869167	0.207687372788659
2870000	0.199998153848995
2870833	0.192308934909331
2871667	0.184610485214638
2872500	0.176921266274974
2873333	1.16923204733531
2874167	1.16153359764062
2875000	1.15384437870096
2875833	1.14615515976129
2876667	1.1384567100666
2877500	1.13076749112694
2878333	1.12307827218728
2879167	1.11537982249258
2880000	1.10769060355292
2880833	0.100001384613254
2881667	1.09230293491856
2882500	1.0846137159789
2883333	0.0769244970392364
2884167	0.069226047344543
2885000	0.0615368284048792
2885833	0.0538476094652154
2886667	1.04614915977052
2887500	1.03845994083086
2888333	1.0307707218912
2889167	1.0230722721965
2890000	1.01538305325684
2890833	1.00769383431718
2891667	0.999995384622487
2892500	0.992306165682823
2893333	-0.0153830532568406
2894167	-0.0230815029515341
2895000	-0.0307707218911979
2895833	-0.0384599408308617
2896667	0.953841609474448
2897500	0.946152390534785
2898333	0.938463171595121
2899167	0.930764721900427
2900000	0.923075502960764
2900833	0.915386284021103
2901667	0.90768783432641
2902500	0.899998615386746
2903333	0.892309396447082
2904167	0.884610946752389
2905000	0.876921727812725
2905833	1.86923250887306
2906667	1.86153405917837
2907500	1.85384484023871
2908333	1.84615562129904
2909167	0.83845717160435
2910000	0.830767952664687
2910833	0.823078733725026
2911667	0.815380284030333
2912500	0.807691065090669
2913333	1.80000184615101
2914167	0.792303396456312
2915000	0.784614177516652
2915833	1.77692495857699
2916667	0.769226508882294
2917500	0.76153728994263
2918333	0.753848071002967
2919167	0.746149621308277
2920000	0.738460402368613
2920833	0.730771183428949
2921667	0.723072733734256
2922500	0.715383514794592
2923333	0.707694295854928
2924167	0.699995846160238
2925000	0.692306627220574
2925833	0.684617408280911
2926667	0.676918958586217
2927500	0.669229739646553
2928333	0.66154052070689
2929167	0.6538420710122
2930000	0.646152852072536
2930833	0.638463633132872
2931667	0.630765183438179
2932500	1.62307596449851
2933333	1.61538674555885
2934167	1.60768829586416
2935000	1.5999990769245
2935833	1.59230985798483
2936667	1.58461140829014
2937500	2.57692218935048
2938333	2.56923297041082
2939167	1.56153452071612
2940000	1.55384530177646
2940833	1.5461560828368
2941667	0.538457633142102
2942500	0.530768414202441
2943333	0.523079195262778
2944167	-0.484619254431916
2945000	-0.49230847337158
2945833	-0.499997692311243
2946667	-0.507696142005937
2947500	0.484614639054403
2948333	0.476925420114739
2949167	0.469226970420046
2950000	0.461537751480382
2950833	0.453848532540718
2951667	0.446150082846025
2952500	1.43846086390636
2953333	1.4307716449667
2954167	1.42307319527201
2955000	1.41538397633234
2955833	1.40769475739268
2956667	1.39999630769799
2957500	0.392307088758326
2958333	0.384617869818662
2959167	1.37691942012397
2960000	1.3692302011843
2960833	1.36154098224464
2961667	0.353842532549951
2962500	0.346153313610287
2963333	0.338464094670623
2964167	0.33076564497593
2965000	0.323076426036266
2965833	0.315387207096606
2966667	0.307688757401912
2967500	1.29999953846225
2968333	1.29231031952258
2969167	1.28461186982789
2970000	1.27692265088823
2970833	1.26923343194857
2971667	1.26153498225387
2972500	1.25384576331421
2973333	1.24615654437455
2974167	1.23845809467985
2975000	1.23076887574019
2975833	1.22307965680053
2976667	1.21538120710584
2977500	1.20769198816617
2978333	0.200002769226508
2979167	0.192304319531814
2980000	0.184615100592154
2980833	0.17692588165249
2981667	0.169227431957797
2982500	0.161538213018133
2983333	0.153848994078469
2984167	1.14615054438378
2985000	1.13846132544412
2985833	1.13077210650445
2986667	1.12307365680976
2987500	1.11538443787009
2988333	1.10769521893043
2989167	1.09999676923574
2990000	1.09230755029608
2990833	0.0846183313564133
2991667	0.0769198816617198
2992500	0.069230662722056
2993333	0.0615414437823958
2994167	1.0538429940877
2995000	1.04615377514804
2995833	1.03846455620837
2996667	1.03076610651368
2997500	1.02307688757402
2998333	1.01538766863436
2999167	1.00768921893966
3000000	0
