R.Time (min)	Intensity
0	0
833	-0.0332920820866249
1667	1.93337586934165
2500	1.90008378725503
3333	0.866791705168403
4167	0.83345965659668
5000	0.800167574510055
5833	0.76687549242343
6667	0.733543443851707
7500	1.70025136176508
8333	1.66695927967846
9167	1.63362723110673
10000	1.60033514902011
10833	1.56704306693349
11667	1.53371101836176
12500	2.50041893627514
13333	2.46712685418851
14167	2.43379480561679
15000	2.40050272353017
15833	2.36721064144354
16667	2.33387859287182
17500	3.30058651078519
18333	3.26729442869857
19167	2.23396238012684
20000	2.20067029804022
20833	2.16737821595359
21667	2.13404616738187
22500	2.10075408529525
23333	2.06746200320862
24167	3.0341299546369
25000	3.00083787255027
25833	2.96754579046365
26667	1.93421374189193
27500	1.9009216598053
28333	1.86762957771868
29167	1.83429752914695
30000	1.80100544706033
30833	1.76771336497371
31667	1.73438131640198
32500	1.70108923431536
33333	2.66779715222873
34167	2.63446510365701
35000	2.60117302157038
35833	2.56788093948376
36667	2.53454889091204
37500	2.50125680882541
38333	1.46796472673879
39167	1.43463267816706
40000	1.40134059608044
40833	0.368048513993815
41667	0.334716465422092
42500	0.301424383335467
43333	-0.731867698751157
44167	-0.76519974732288
45000	-0.798491829409505
45833	-0.83178391149613
46667	-0.865115960067853
47500	-0.898408042154478
48333	-0.931700124241102
49167	0.0349678271871745
50000	0.00167574510054957
50833	-0.0316163369860751
51667	-0.0649483855577979
52500	-0.0982404676444228
53333	-0.131532549731048
54167	0.83513540169723
55000	0.801843319610605
55833	-0.23144876247602
56667	-0.264780811047743
57500	-0.298072893134368
58333	-0.331364975220993
59167	-0.364697023792715
60000	-0.39798910587934
60833	-0.431281187965965
61667	-0.464613236537688
62500	-0.497905318624313
63333	-0.531197400710938
64167	-0.56452944928266
65000	-0.597821531369286
65833	-0.63111361345591
66667	0.335554337972367
67500	0.302262255885742
68333	0.268970173799117
69167	0.235638125227394
70000	0.20234604314077
70833	-0.830946038945855
71667	-0.864278087517578
72500	-0.897570169604203
73333	0.0691377483091724
74167	0.0358056997374492
75000	0.0025136176508247
75833	-0.0307784644358002
76667	-0.064110513007523
77500	-1.09740259509415
78333	-0.130694677180772
79167	-0.164026725752496
80000	-0.197318807839121
80833	-0.230610889925746
81667	0.736057061502532
82500	0.702764979415907
83333	0.669472897329282
84167	0.636140848757559
85000	0.609171208977608
85833	0.596985394276896
86667	0.584784950747012
87500	-0.427400863953701
88333	-0.439586678654413
89167	0.548212877815702
90000	0.53602706311499
90833	0.523841248414278
91667	0.511640804884393
92500	-0.500545009816319
93333	-0.512730824517031
94167	-0.524931268046916
95000	-1.53711708274763
95833	-1.54930289744834
96667	-1.56150334097823
97500	-0.573689155678938
98333	-0.58587497037965
99167	-0.598075413909535
100000	-0.610261228610247
100833	-0.622447043310959
101667	0.365352513159156
102500	0.353166698458444
103333	0.340980883757731
104167	0.328780440227846
105000	0.316594625527134
105833	0.304408810826422
106667	0.292208367296537
107500	0.280022552595825
108333	0.267836737895113
109167	0.255636294365228
110000	0.243450479664516
110833	0.231264664963803
111667	0.219064221433919
112500	0.206878406733206
113333	0.194692592032494
114167	0.182492148502609
115000	0.170306333801897
115833	0.158120519101185
116667	1.1459200755713
117500	1.13373426087059
118333	1.12154844616988
119167	0.109348002639991
120000	0.0971621879392786
120833	0.0849763732385662
121667	0.0727759297086816
122500	0.0605901150079693
123333	0.048404300307257
124167	0.0362038567773721
125000	0.0240180420766598
125833	0.0118322273759477
126667	-3.6821615393734E-4
127500	-0.0125540308546492
128333	-0.0247398455553616
129167	-0.0369402890852464
130000	-0.0491261037859587
130833	-0.0613119184866706
131667	0.926487637983445
132500	-0.0856981767172678
133333	-0.0978839914179801
134167	-0.110084434947865
135000	-0.122270249648577
135833	-0.13445606434929
136667	-0.146656507879174
137500	0.841157677420114
138333	0.828971862719401
139167	0.816771419189517
140000	0.804585604488804
140833	0.792399789788092
141667	-0.219800653741792
142500	-0.231986468442505
143333	0.755827716856783
144167	0.743627273326898
145000	0.731441458626186
145833	0.719255643925473
146667	0.707055200395589
147500	0.694869385694876
148333	0.682683570994164
149167	1.67048312746428
150000	1.65829731276357
150833	1.64611149806285
151667	1.63391105453297
152500	1.62172523983226
153333	0.609539425131546
154167	0.597338981601661
155000	0.585153166900948
155833	0.572967352200236
156667	0.560766908670352
157500	0.54858109396964
158333	-0.463604720731073
159167	-0.475805164260958
160000	0.51200902103833
160833	0.499823206337618
161667	0.487622762807733
162500	0.475436948107021
163333	0.463251133406309
164167	0.451050689876424
165000	0.438864875175711
165833	-0.573320939525001
166667	-0.585521383054886
167500	-0.597707197755598
168333	-0.60989301245631
169167	-0.622093455986195
170000	-0.634279270686907
170833	-0.64646508538762
171667	-0.658665528917504
172500	-0.670851343618216
173333	-1.68303715831893
174167	-1.69523760184881
175000	-0.707423416549526
175833	-0.719609231250238
176667	-0.731809674780123
177500	0.256004510519165
178333	0.243818695818453
179167	0.231618252288568
180000	0.219432437587856
180833	0.207246622887143
181667	0.195046179357259
182500	0.182860364656547
183333	0.170674549955834
184167	0.158474106425949
185000	0.146288291725237
185833	0.134102477024525
186667	0.12190203349464
187500	0.109716218793928
188333	1.09753040409322
189167	1.08532996056333
190000	1.07314414586262
190833	1.06095833116191
191667	1.04875788763202
192500	0.0365720729313095
193333	0.0243862582305971
194167	0.0121858147007123
195000	0
195833	0.0256307692307693
196667	0.0512923076923077
197500	0.0769230769230771
198333	0.102553846153846
199167	0.128215384615385
200000	0.153846153846154
200833	0.179476923076923
201667	0.205138461538461
202500	0.230769230769231
203333	0.2564
204167	0.282061538461539
205000	0.307692307692307
205833	0.333323076923077
206667	0.358984615384615
207500	0.384615384615385
208333	0.410246153846154
209167	-0.564092307692308
210000	-0.538461538461538
210833	-0.512830769230769
211667	-0.487169230769231
212500	-1.46153846153846
213333	-1.43590769230769
214167	-1.41024615384615
215000	-1.38461538461538
215833	-1.35898461538462
216667	-0.333323076923077
217500	-0.307692307692307
218333	-0.282061538461539
219167	-0.2564
220000	-0.230769230769231
220833	-0.205138461538461
221667	-0.179476923076923
222500	-0.153846153846154
223333	-0.128215384615385
224167	-0.102553846153846
225000	-0.0769230769230767
225833	-0.0512923076923077
226667	-0.0256307692307693
227500	0
228333	1.02563076923077
229167	1.05129230769231
230000	1.07692307692308
230833	1.10255384615385
231667	0.128215384615385
232500	0.153846153846154
233333	0.179476923076923
234167	0.205138461538461
235000	0.230769230769231
235833	0.2564
236667	0.282061538461538
237500	0.307692307692308
238333	-0.666676923076923
239167	-0.641015384615385
240000	-0.615384615384615
240833	-0.589753846153846
241667	-0.564092307692308
242500	0.461538461538461
243333	0.487169230769231
244167	0.512830769230769
245000	0.538461538461539
245833	0.564092307692308
246667	0.589753846153846
247500	0.615384615384615
248333	-0.358984615384615
249167	-0.333323076923077
250000	-0.307692307692308
250833	-0.282061538461538
251667	-0.2564
252500	-0.230769230769231
253333	-0.205138461538461
254167	-0.179476923076923
255000	-0.153846153846154
255833	-0.128215384615385
256667	-0.102553846153846
257500	-0.0769230769230769
258333	-0.0512923076923077
259167	-0.0256307692307691
260000	0
260833	0.0256307692307693
261667	0.0512923076923077
262500	0.0769230769230771
263333	1.10255384615385
264167	0.128215384615384
265000	0.153846153846154
265833	0.179476923076923
266667	0.205138461538461
267500	0.230769230769231
268333	0.2564
269167	0.282061538461539
270000	0.307692307692307
270833	0.333323076923077
271667	0.358984615384615
272500	0.384615384615385
273333	0.410246153846154
274167	0.435907692307692
275000	0.461538461538462
275833	0.487169230769231
276667	0.512830769230769
277500	0.538461538461538
278333	0.564092307692308
279167	-0.410246153846154
280000	-0.384615384615385
280833	-0.358984615384615
281667	-0.333323076923077
282500	-0.307692307692307
283333	-0.282061538461539
284167	-0.2564
285000	-0.230769230769231
285833	-0.205138461538461
286667	-0.179476923076923
287500	-0.153846153846154
288333	-1.12821538461538
289167	-1.10255384615385
290000	-1.07692307692308
290833	-1.05129230769231
291667	-0.0256307692307693
292500	0
293333	-0.0385973787997158
294167	-0.0772410929881467
295000	0.884161528212137
295833	0.845564149412422
296667	0.806920435223991
297500	0.768323056424275
298333	0.729725677624559
299167	0.691081963436128
300000	0.652484584636412
300833	-0.386112794163303
301667	-0.424756508351734
302500	-0.46335388715145
303333	-0.501951265951166
304167	-0.540594980139597
305000	-0.579192358939313
305833	0.382210262260972
306667	0.343566548072541
307500	0.304969169272825
308333	0.266371790473109
309167	0.227728076284678
310000	0.189130697484962
310833	0.150533318685247
311667	0.111889604496816
312500	0.0732922256970999
313333	1.03469484689738
314167	0.996051132708953
315000	0.957453753909237
315833	0.918856375109522
316667	-0.119787339078909
317500	-0.158384717878625
318333	-0.196982096678341
319167	-0.235625810866772
320000	-0.274223189666488
320833	-0.312820568466204
321667	-0.351464282654634
322500	-0.39006166145435
323333	-0.428659040254066
324167	-0.467302754442497
325000	-0.505900133242213
325833	-0.544497512041928
326667	0.416858773769641
327500	0.378261394969925
328333	-0.660335983829791
329167	-0.698979698018222
330000	-0.737577076817938
330833	-0.776174455617654
331667	-0.814818169806084
332500	-0.8534155486058
333333	-0.892012927405516
334167	0.069343358406053
335000	0.0307459796063372
335833	-0.00785139919337841
336667	-0.0464951133818095
337500	-0.0850924921815253
338333	-0.123689870981241
339167	-0.162333585169672
340000	-0.200930963969388
340833	-0.239528342769103
341667	-0.278172056957535
342500	-0.31676943575725
343333	-0.355366814556966
344167	-0.394010528745397
345000	-0.415639065453442
345833	-0.413439605054417
346667	-0.41123750424675
347500	0.590961956152276
348333	0.593161416551301
349167	-0.404636482641032
350000	-0.402437022242006
350833	-0.400237561842981
351667	0.601964538964686
352500	0.604163999363712
353333	0.606363459762737
354167	-0.391434439429596
355000	-0.38923497903057
355833	-0.387035518631545
356667	-0.384833417823878
357500	-0.382633957424853
358333	-0.380434497025828
359167	-0.37823239621816
360000	-0.376032935819135
360833	-0.37383347542011
361667	-1.37163137461244
362500	-0.369431914213417
363333	-0.367232453814392
364167	-0.365030353006724
365000	-0.362830892607699
365833	-1.36063143220867
366667	-1.35842933140101
367500	-1.35622987100198
368333	-1.35403041060296
369167	-0.351828309795289
370000	-0.349628849396264
370833	-0.347429388997238
371667	-1.34522728818957
372500	-1.34302782779055
373333	-1.34082836739152
374167	-1.33862626658385
375000	-0.336426806184828
375833	-0.334227345785802
376667	-0.332025244978135
377500	-0.32982578457911
378333	-0.327626324180085
379167	-0.325424223372417
380000	-0.323224762973392
380833	-0.321025302574367
381667	-0.318823201766699
382500	-1.31662374136767
383333	-0.314424280968649
384167	-0.312222180160981
385000	-0.310022719761956
385833	-0.307823259362931
386667	-0.305621158555264
387500	-0.303421698156239
388333	-0.301222237757214
389167	-0.299020136949546
390000	-0.296820676550521
390833	-0.294621216151496
391667	-0.292419115343828
392500	-0.290219654944803
393333	-0.288020194545778
394167	-0.285818093738111
395000	-0.283618633339085
395833	-0.28141917294006
396667	-0.279217072132393
397500	0.722982388266633
398333	0.725181848665658
399167	0.727383949473325
400000	0.729583409872351
400833	0.731782870271376
401667	0.733984971079043
402500	0.736184431478069
403333	0.738383891877094
404167	0.740585992684761
405000	-0.257214546916213
405833	-0.255015086517188
406667	-1.25281298570952
407500	-1.2506135253105
408333	-1.24841406491147
409167	-0.246211964103803
410000	-0.244012503704778
410833	-0.241813043305753
411667	-0.239610942498085
412500	-0.23741148209906
413333	-0.235212021700035
414167	-0.233009920892368
415000	-0.230810460493342
415833	-0.228611000094317
416667	-0.22640889928665
417500	-0.224209438887625
418333	-0.222009978488599
419167	-0.219807877680932
420000	-0.217608417281907
420833	-0.215408956882881
421667	-0.213206856075214
422500	-0.211007395676189
423333	-0.208807935277163
424167	-0.206605834469496
425000	-0.204406374070471
425833	-0.202206913671446
426667	-0.200004812863778
427500	-0.197805352464753
428333	-0.195605892065728
429167	-0.19340379125806
430000	-0.191204330859035
430833	-0.18900487046001
431667	-0.186802769652342
432500	0.815396690746683
433333	0.817596151145708
434167	0.819798251953375
435000	0.821997712352401
435833	0.824197172751425
436667	0.826399273559093
437500	0.828598733958118
438333	0.830798194357143
439167	0.833000295164811
440000	1.83519975556384
440833	1.83739921596286
441667	0.839601316770529
442500	0.841800777169554
443333	0.844000237568579
444167	-0.153797661623753
445000	-0.151598201224728
445833	-0.149398740825703
446667	0.852803359981964
447500	0.85500282038099
448333	-0.142797719219985
449167	-0.140595618412318
450000	-0.138396158013292
450833	0.863803302385733
451667	0.8660054031934
452500	0.868204863592426
453333	0.870404323991451
454167	0.872606424799118
455000	0.874805885198144
455833	0.877005345597168
456667	-0.120792553595164
457500	-0.118593093196139
458333	0.883606367202886
459167	0.885808468010554
460000	0.888007928409579
460833	0.890207388808604
461667	0.892409489616272
462500	0.894608950015297
463333	0.896808410414322
464167	0.899010511221989
465000	0.901209971621014
465833	0.90340943202004
466667	-0.0943884671722928
467500	-0.0921890067732676
468333	-0.0899895463742424
469167	-0.0877874455665748
470000	-0.0855879851675496
470833	-0.0833885247685244
471667	-0.0811864239608568
472500	-0.0789869635618317
473333	-0.0767875031628065
474167	-0.0745854023551393
475000	-0.0778607587617306
475833	0.912791534542412
476667	0.903432606109825
477500	1.89408489941397
478333	1.88473719271811
479167	0.875378264285525
480000	0.866030557589668
480833	0.856682850893811
481667	-0.152676077538776
482500	-0.162023784234633
483333	-0.17137149093049
484167	-0.180730419363077
485000	0.809921873941066
485833	0.800574167245209
486667	0.791215238812622
487500	0.781867532116765
488333	0.772519825420908
489167	-0.236839103011679
490000	-0.246186809707536
490833	-0.255534516403393
491667	0.735106555164021
492500	0.725758848468163
493333	0.716411141772306
494167	0.70705221333972
495000	0.697704506643863
495833	0.688356799948005
496667	1.67899787151542
497500	0.669650164819561
498333	0.660302458123704
499167	0.650943529691118
500000	0.641595822995261
500833	0.632248116299404
501667	0.622889187866817
502500	0.61354148117096
503333	0.604193774475103
504167	-0.405165153957484
505000	-0.414512860653341
505833	-0.423860567349198
506667	-0.433219495781785
507500	0.557432797522358
508333	-0.451914909173499
509167	-0.461273837606086
510000	-0.470621544301943
510833	-0.4799692509978
511667	-0.489328179430387
512500	-1.49867588612624
513333	-1.5080235928221
514167	-1.51738252125469
515000	-1.52673022795054
515833	-1.5360779346464
516667	-1.54543686307899
517500	-1.55478456977485
518333	-1.5641322764707
519167	-0.573491204903289
520000	-0.582838911599146
520833	-0.592186618295003
521667	-0.60154554672759
522500	-0.610893253423447
523333	0.379759039880696
524167	0.370400111448109
525000	0.361052404752252
525833	0.351704698056395
526667	0.342345769623808
527500	-0.667001937072049
528333	-0.676349643767906
529167	0.314291427799508
530000	0.30494372110365
530833	0.295596014407793
531667	0.286237085975206
532500	0.27688937927935
533333	-0.732458327416508
534167	-0.741817255849094
535000	-0.751164962544951
535833	-0.760512669240808
536667	-0.769871597673395
537500	-0.779219304369252
538333	-0.788567011065109
539167	-1.7979259394977
540000	-1.80727364619355
540833	-0.81662135288941
541667	-0.825980281321997
542500	-0.835327988017854
543333	-0.844675694713711
544167	-0.854034623146298
545000	-0.863382329842155
545833	-0.872730036538012
546667	-0.882088964970599
547500	-0.891436671666455
548333	-0.900784378362313
549167	-1.9101433067949
550000	-1.91949101349076
550833	-1.92883872018661
551667	-1.9381976486192
552500	-1.94754535531506
553333	-1.95689306201091
554167	-1.9662519904435
555000	-1.97559969713936
555833	-1.98494740383522
556667	-1.9943063322678
557500	-2.00365403896366
558333	-2.01300174565952
559167	-1.0223606740921
560000	-1.03170838078796
560833	-1.04105608748382
561667	-1.0504150159164
562500	-1.05976272261226
563333	-2.06911042930812
564167	-2.0784693577407
565000	-2.08781706443656
565833	-1.09716477113242
566667	-1.10652369956501
567500	-1.11587140626086
568333	-1.12521911295672
569167	-1.13457804138931
570000	-1.14392574808516
570833	-1.15327345478102
571667	-1.16263238321361
572500	-0.171980089909464
573333	-0.181327796605321
574167	-0.190686725037908
575000	-1.20003443173377
575833	-1.20938213842962
576667	-1.21874106686221
577500	-1.22808877355807
578333	-0.237436480253923
579167	-0.24679540868651
580000	-0.256143115382367
580833	-0.265490822078224
581667	-0.274849750510811
582500	-0.284197457206668
583333	-0.293545163902524
584167	-0.302904092335112
585000	-1.31225179903097
585833	-0.321599505726826
586667	-0.330958434159412
587500	-0.34030614085527
588333	-0.349653847551127
589167	-0.359012775983714
590000	-0.36836048267957
590833	-0.377708189375427
591667	0.612932882191986
592500	0.603585175496129
593333	0.594237468800272
594167	-0.415121459632315
595000	-0.424469166328172
595833	-0.433816873024029
596667	-0.443175801456616
597500	-0.422613653328402
598333	-0.389562242430214
599167	-0.356471153967924
600000	-0.323419743069736
600833	-1.29036833217155
601667	-1.25727724370926
602500	-1.22422583281107
603333	-1.19117442191288
604167	-1.15808333345059
605000	-1.12503192255241
605833	-1.09198051165422
606667	-1.05888942319193
607500	-2.02583801229374
608333	-1.99278660139555
609167	-1.95969551293326
610000	-2.92664410203508
610833	-2.89359269113689
611667	-2.8605016026746
612500	-3.82745019177641
613333	-4.79439878087822
614167	-6.76130769241593
615000	-9.72825628151774
615833	-14.6952048706196
616667	-21.6621137821573
617500	-32.6290623712591
618333	-50.5960109603609
619167	-75.5629198718986
620000	-113.529868461
620833	-169.496817050102
621667	-248.46372596164
622500	-360.430674550742
623333	-514.397623139844
624167	-724.364532051381
625000	-1001.33148064048
625833	-1359.29842922958
626667	-1810.26533814112
627500	-2363.23228673022
628333	-3022.19923531933
629167	-3785.16614423086
630000	-4642.13309281997
630833	-5575.10004140907
631667	-6559.06695032061
632500	-7563.03389890971
633333	-8553.00084749881
634167	-9490.96775641035
635000	-10342.9347049994
635833	-11077.9016535885
636667	-11672.8685625001
637500	-12107.8355110892
638333	-12374.8024596783
639167	-12470.7693685898
640000	-12402.7363171789
640833	-12181.703265768
641667	-11824.6701746796
642500	-11350.6371232687
643333	-10782.6040718578
644167	-10142.5709807693
645000	-9452.53792935841
645833	-8732.50487794752
646667	-8001.47178685905
647500	-7274.43873544816
648333	-6567.40568403726
649167	-5888.37259294879
650000	-5246.3395415379
650833	-4647.306490127
651667	-4094.27339903854
652500	-3590.24034762764
653333	-3134.20729621674
654167	-2724.17420512828
655000	-2359.14115371738
655833	-2037.10810230648
656667	-1754.07501121802
657500	-1506.04195980712
658333	-1291.00890839622
659167	-1103.97581730776
660000	-943.942765896862
660833	-805.909714485964
661667	-687.876623397501
662500	-586.843571986603
663333	-500.810520575705
664167	-427.777429487243
665000	-365.744378076344
665833	-312.711326665446
666667	-267.678235576984
667500	-229.645184166086
668333	-197.612132755188
669167	-170.579041666725
670000	-147.545990255827
670833	-128.512938844929
671667	-112.479847756467
672500	-97.4467963455684
673333	-85.4137449346703
674167	-75.380653846208
675000	-66.3476024353098
675833	-58.3145510244116
676667	-52.2814599359493
677500	-47.2484085250511
678333	-42.2153571141529
679167	-38.1822660256906
680000	-34.1492146147924
680833	-30.1161632038943
681667	-27.083072115432
682500	-25.0500207045338
683333	-23.0169692936356
684167	-20.9838782051733
685000	-18.9508267942751
685833	-17.9177753833769
686667	-16.8846842949146
687500	-14.8516328840165
688333	-13.8185814731183
689167	-12.785490384656
690000	-12.7524389737578
690833	-11.7193875628596
691667	-11.6862964743973
692500	-10.6532450634991
693333	-10.6201936526009
694167	-9.58710256413864
695000	-9.55405115324046
695833	-8.52099974234227
696667	-7.48790865387998
697500	-7.45485724298179
698333	-6.4218058320836
699167	-6.38871474362131
700000	-5.35566333272313
700833	-5.32261192182494
701667	-5.28952083336265
702500	-5.25646942246446
703333	-4.22341801156627
704167	-4.19032692310398
705000	-4.1572755122058
705833	-4.12422410130761
706667	-4.09113301284532
707500	-4.05808160194713
708333	-3.02503019104894
709167	-2.99193910258665
710000	-2.95888769168846
710833	-2.92583628079028
711667	-2.89274519232799
712500	-2.8596937814298
713333	-2.82664237053161
714167	-1.79355128206932
715000	-1.76049987117113
715833	-1.72744846027295
716667	-1.69435737181066
717500	-0.661305960912469
718333	-0.628254550014282
719167	-0.595163461551992
720000	-0.562112050653804
720833	-0.529060639755617
721667	-0.495969551293326
722500	-0.462918140395139
723333	-0.429866729496952
724167	-1.39677564103466
725000	-1.36372423013647
725833	-1.33067281923829
726667	-1.297581730776
727500	-0.264530319877808
728333	-0.231478908979621
729167	-0.198387820517331
730000	-0.165336409619143
730833	-0.132284998720956
731667	-0.0991939102586654
732500	-0.0661424993604784
733333	-0.0330910884622906
734167	0
735000	-0.0256307692307691
735833	-0.0512615384615385
736667	-0.0769230769230769
737500	-0.102553846153846
738333	-0.128184615384615
739167	-0.153846153846154
740000	-0.179476923076923
740833	-0.205107692307692
741667	0.769230769230769
742500	0.7436
743333	0.717969230769231
744167	0.692307692307692
745000	-0.333323076923077
745833	-0.358953846153846
746667	0.615384615384615
747500	0.589753846153846
748333	1.56412307692308
749167	1.53846153846154
750000	1.51283076923077
750833	1.4872
751667	1.46153846153846
752500	1.43590769230769
753333	1.41027692307692
754167	1.38461538461538
755000	1.35898461538462
755833	1.33335384615385
756667	1.30769230769231
757500	1.28206153846154
758333	1.25643076923077
759167	0.230769230769231
760000	0.205138461538461
760833	0.179507692307692
761667	0.153846153846154
762500	0.128215384615385
763333	0.102584615384616
764167	0.0769230769230769
765000	0.0512923076923077
765833	0.0256615384615384
766667	1
767500	0.974369230769231
768333	0.948738461538462
769167	0.923076923076923
770000	-0.102553846153846
770833	-0.128184615384615
771667	-0.153846153846154
772500	-0.179476923076923
773333	-0.205107692307692
774167	-0.230769230769231
775000	-0.2564
775833	-0.282030769230769
776667	-0.307692307692308
777500	-0.333323076923077
778333	-0.358953846153846
779167	-0.384615384615385
780000	-0.410246153846154
780833	-0.435876923076923
781667	0.538461538461539
782500	0.512830769230769
783333	0.4872
784167	1.46153846153846
785000	0.435907692307692
785833	0.410276923076923
786667	0.384615384615385
787500	-0.641015384615385
788333	-0.666646153846154
789167	0.307692307692308
790000	0.282061538461538
790833	0.256430769230769
791667	0.230769230769231
792500	0.205138461538461
793333	0.179507692307692
794167	0.153846153846154
795000	0.128215384615385
795833	0.102584615384615
796667	0.0769230769230769
797500	0.0512923076923077
798333	0.0256615384615384
799167	0
800000	-0.0256307692307693
800833	-0.0512615384615382
801667	-0.0769230769230771
802500	-0.102553846153846
803333	-0.128184615384615
804167	0.846153846153846
805000	0.820523076923077
805833	0.794892307692308
806667	0.769230769230769
807500	0.7436
808333	0.717969230769231
809167	0.692307692307693
810000	0.666676923076923
810833	0.641046153846154
811667	0.615384615384615
812500	0.589753846153846
813333	0.564123076923077
814167	0.538461538461538
815000	0.512830769230769
815833	0.4872
816667	-0.538461538461538
817500	-0.564092307692308
818333	-0.589723076923077
819167	-0.615384615384615
820000	-0.641015384615385
820833	-0.666646153846154
821667	-0.692307692307693
822500	0.282061538461539
823333	0.256430769230769
824167	0.230769230769231
825000	0.205138461538461
825833	0.179507692307692
826667	0.153846153846154
827500	0.128215384615384
828333	0.102584615384616
829167	0.0769230769230771
830000	0.0512923076923077
830833	0.0256615384615384
831667	0
832500	-0.00663337266614161
833333	-0.0132667453322832
834167	-0.0199080812309174
835000	-0.026541453897059
835833	-0.0331748265632008
836667	-1.03981616246183
837500	-1.04644953512798
838333	-1.05308290779412
839167	-1.05972424369275
840000	-0.0663576163588937
840833	-0.0729909890250355
841667	-0.0796323249236695
842500	-0.0862656975898111
843333	-0.0928990702559529
844167	-0.0995404061545868
845000	0.893826221179272
845833	0.88719284851313
846667	0.880551512614496
847500	0.873918139948354
848333	0.867284767282213
849167	0.860643431383578
850000	0.854010058717437
850833	0.847376686051295
851667	0.840735350152661
852500	0.834101977486519
853333	1.82746860482038
854167	1.82082726892174
855000	1.8141938962556
855833	1.80756052358946
856667	1.80091918769083
857500	1.79428581502468
858333	1.78765244235854
859167	1.78101110645991
860000	1.77437773379377
860833	1.76774436112763
861667	0.761103025228992
862500	0.75446965256285
863333	0.747836279896708
864167	0.741194943998074
865000	0.734561571331933
865833	0.727928198665791
866667	0.721286862767157
867500	0.714653490101015
868333	-0.291979882565126
869167	-0.29862121846376
870000	-0.305254591129902
870833	0.688112036203956
871667	0.681470700305322
872500	0.674837327639181
873333	-0.331796045026961
874167	0.661562619074405
875000	0.654929246408263
875833	-0.351704126257879
876667	-0.358345462156513
877500	0.635021165177346
878333	0.628387792511204
879167	0.62174645661257
880000	0.615113083946429
880833	-0.391520288719713
881667	0.601838375381653
882500	0.595205002715511
883333	0.588571630049369
884167	0.581930294150735
885000	0.575296921484594
885833	0.568663548818452
886667	0.562022212919818
887500	0.555388840253676
888333	1.54875546758753
889167	1.5421141316889
890000	1.53548075902276
890833	2.52884738635662
891667	3.52220605045798
892500	4.51557267779184
893333	5.5089393051257
894167	6.50229796922707
895000	8.49566459656092
895833	10.4890312238948
896667	11.4823898879961
897500	14.47575651533
898333	16.4691231426639
899167	19.4624818067652
900000	22.4558484340991
900833	25.4492150614329
901667	28.4425737255343
902500	31.4359403528682
903333	34.429306980202
904167	37.4226656443034
905000	41.4160322716373
905833	44.4093988989711
906667	47.4027575630725
907500	49.3961241904063
908333	50.3894908177402
909167	51.3828494818416
910000	52.3762161091754
910833	53.3695827365093
911667	53.3629414006106
912500	53.3563080279445
913333	52.3496746552784
914167	51.3430333193797
915000	49.3363999467136
915833	47.3297665740474
916667	45.3231252381488
917500	43.3164918654827
918333	40.3098584928165
919167	37.3032171569179
920000	35.2965837842518
920833	32.2899504115856
921667	29.283309075687
922500	27.2766757030208
923333	25.2700423303547
924167	23.2634009944561
925000	21.2567676217899
925833	19.2501342491238
926667	17.2434929132251
927500	15.236859540559
928333	13.2302261678929
929167	11.2235848319942
930000	10.2169514593281
930833	9.21031808666194
931667	8.20367675076331
932500	7.19704337809716
933333	6.19041000543102
934167	5.18376866953239
935000	4.17713529686625
935833	3.1705019242001
936667	3.16386058830147
937500	2.15722721563533
938333	2.15059384296919
939167	1.14395250707055
940000	1.13731913440441
940833	1.13068576173827
941667	1.12404442583964
942500	1.11741105317349
943333	1.11077768050735
944167	0.104495504794606
945000	0.0989951310013348
945833	0.093494757208064
946667	0.0879877803250053
947500	0.0824874065317345
948333	0.0769870327384636
949167	0.071480055855405
950000	0.0659796820621341
950833	0.0604793082688633
951667	0.0549723313858048
952500	0.049471957592534
953333	0.0439715837992631
954167	0.0384646069162045
955000	0.0329642331229336
955833	0.0274638593296628
956667	0.0219568824466041
957500	0.0164565086533333
958333	0.0109561348600624
959167	1.005449157977
960000	0.999948784183733
960833	0.994448410390462
961667	0.988941433507403
962500	0.983441059714133
963333	0.977940685920862
964167	0.972433709037803
965000	0.966933335244533
965833	0.961432961451262
966667	0.955925984568203
967500	0.950425610774932
968333	0.944925236981661
969167	1.9394182600986
970000	1.93391788630533
970833	1.92841751251206
971667	1.922910535629
972500	1.91741016183573
973333	1.91190978804246
974167	1.9064028111594
975000	1.90090243736613
975833	1.89540206357286
976667	0.889895086689802
977500	0.884394712896531
978333	0.87889433910326
979167	-0.126612637779798
980000	-0.13211301157307
980833	-0.13761338536634
981667	-0.143120362249399
982500	-0.14862073604267
983333	-0.154121109835941
984167	-0.159628086718999
985000	-0.16512846051227
985833	-0.170628834305541
986667	-0.176135811188599
987500	-0.18163618498187
988333	-0.187136558775141
989167	-0.1926435356582
990000	-0.198143909451471
990833	-0.203644283244742
991667	-0.2091512601278
992500	-0.214651633921071
993333	-0.220152007714342
994167	-0.2256589845974
995000	-0.231159358390671
995833	-0.236659732183942
996667	0.757833290932999
997500	0.752332917139729
998333	0.746832543346458
999167	-0.258674433536601
1000000	-0.264174807329872
1000833	-0.269675181123143
1001667	-0.275182158006201
1002500	-0.280682531799472
1003333	-0.286182905592743
1004167	-0.291689882475802
1005000	0.702809743730928
1005833	0.697309369937657
1006667	0.691802393054598
1007500	-0.313697980738673
1008333	-0.319198354531943
1009167	-0.324705331415002
1010000	-0.330205705208273
1010833	-0.335706079001544
1011667	-0.341213055884602
1012500	-1.34671342967787
1013333	-1.35221380347114
1014167	-1.3577207803542
1015000	-0.363221154147474
1015833	-0.368721527940744
1016667	-0.374228504823803
1017500	-1.37972887861707
1018333	-1.38522925241034
1019167	-0.390736229293403
1020000	-0.396236603086674
1020833	-0.401736976879945
1021667	-0.407243953763004
1022500	-0.412744327556275
1023333	-0.416553898487838
1024167	-0.416553898487838
1025000	-0.416553898487838
1025833	-1.41655389848784
1026667	-1.41655389848784
1027500	-1.41655389848784
1028333	-1.41655389848784
1029167	-1.41655389848784
1030000	-1.41655389848784
1030833	-1.41655389848784
1031667	-1.41655389848784
1032500	-1.41655389848784
1033333	-1.41655389848784
1034167	-1.41655389848784
1035000	-1.41655389848784
1035833	-0.416553898487838
1036667	-0.416553898487838
1037500	-0.416553898487838
1038333	-1.41655389848784
1039167	-1.41655389848784
1040000	-0.416553898487838
1040833	-0.416553898487838
1041667	-0.416553898487838
1042500	-0.416553898487838
1043333	-1.41655389848784
1044167	-1.41655389848784
1045000	-1.41655389848784
1045833	-1.41655389848784
1046667	-0.416553898487838
1047500	-0.416553898487838
1048333	-0.416553898487838
1049167	-0.416553898487838
1050000	-0.416553898487838
1050833	0.583446101512162
1051667	0.583446101512162
1052500	0.583446101512162
1053333	0.583446101512162
1054167	-0.416553898487838
1055000	-0.416553898487838
1055833	-0.416553898487838
1056667	-0.416553898487838
1057500	-0.416553898487838
1058333	-0.416553898487838
1059167	0.583446101512162
1060000	0.583446101512162
1060833	1.58344610151216
1061667	0.583446101512162
1062500	0.583446101512162
1063333	0.583446101512162
1064167	0.583446101512162
1065000	0.583446101512162
1065833	0.583446101512162
1066667	0.583446101512162
1067500	0.583446101512162
1068333	0.583446101512162
1069167	0.583446101512162
1070000	0.583446101512162
1070833	0.583446101512162
1071667	0.583446101512162
1072500	1.58344610151216
1073333	0.583446101512162
1074167	0.583446101512162
1075000	0.583446101512162
1075833	0.583446101512162
1076667	0.583446101512162
1077500	0.583446101512162
1078333	0.583446101512162
1079167	0.583446101512162
1080000	0.583446101512162
1080833	-0.416553898487838
1081667	-0.416553898487838
1082500	-0.416553898487838
1083333	-0.416553898487838
1084167	-1.41655389848784
1085000	-1.41655389848784
1085833	-1.41655389848784
1086667	-1.41655389848784
1087500	-1.41655389848784
1088333	-1.41655389848784
1089167	-1.41655389848784
1090000	-1.41655389848784
1090833	-1.41655389848784
1091667	-1.41655389848784
1092500	-0.416553898487838
1093333	-0.416553898487838
1094167	-0.416553898487838
1095000	-0.416553898487838
1095833	-0.416553898487838
1096667	-0.416553898487838
1097500	-0.416553898487838
1098333	-0.416553898487838
1099167	-0.416553898487838
1100000	-0.416553898487838
1100833	-0.416553898487838
1101667	0.583446101512162
1102500	0.583446101512162
1103333	0.583446101512162
1104167	0.583446101512162
1105000	0.583446101512162
1105833	0.583446101512162
1106667	0.583446101512162
1107500	-0.416553898487838
1108333	-0.416553898487838
1109167	-0.415020419746027
1110000	0.598755148016288
1110833	0.612530715778604
1111667	0.626322820837153
1112500	1.64009838859947
1113333	1.65387395636178
1114167	2.66766606142033
1115000	3.68144162918265
1115833	4.69521719694496
1116667	5.70900930200351
1117500	6.72278486976583
1118333	7.73656043752814
1119167	8.75035254258669
1120000	10.764128110349
1120833	12.7779036781113
1121667	14.7916957831699
1122500	16.8054713509322
1123333	19.8192469186945
1124167	22.8330390237531
1125000	25.8468145915154
1125833	28.8605901592777
1126667	31.8743822643362
1127500	34.8881578320986
1128333	38.9019333998609
1129167	41.9157255049194
1130000	45.9295010726817
1130833	49.943276640444
1131667	53.9570687455026
1132500	57.9708443132649
1133333	61.9846198810272
1134167	64.9984119860858
1135000	68.0121875538481
1135833	72.0259631216104
1136667	74.039755226669
1137500	77.0535307944313
1138333	78.0673063621936
1139167	79.0810984672521
1140000	80.0948740350145
1140833	80.1086496027768
1141667	79.1224417078353
1142500	78.1362172755976
1143333	77.14999284336
1144167	75.1637849484185
1145000	73.1775605161808
1145833	70.1913360839431
1146667	68.2051281890017
1147500	65.218903756764
1148333	61.2326793245263
1149167	58.2464714295849
1150000	54.2602469973472
1150833	51.2740225651095
1151667	47.287814670168
1152500	44.3015902379304
1153333	40.3153658056927
1154167	37.3291579107512
1155000	34.3429334785135
1155833	31.3567090462758
1156667	28.3705011513344
1157500	26.3842767190967
1158333	23.398052286859
1159167	21.4118443919176
1160000	19.4256199596799
1160833	17.4393955274422
1161667	15.4531876325008
1162500	14.4669632002631
1163333	12.4807387680254
1164167	11.4945308730839
1165000	10.5083064408463
1165833	9.52208200860857
1166667	8.53587411366712
1167500	7.54964968142943
1168333	6.56342524919175
1169167	5.5772173542503
1170000	4.59099292201261
1170833	4.60476848977493
1171667	3.61856059483348
1172500	3.63233616259579
1173333	3.64611173035811
1174167	3.65990383541666
1175000	2.67367940317897
1175833	2.68745497094129
1176667	1.70124707599984
1177500	1.71502264376215
1178333	1.72879821152447
1179167	1.74259031658302
1180000	0.756365884345335
1180833	0.77014145210765
1181667	0.783933557166199
1182500	0.771881552239138
1183333	0.758956328165854
1184167	-0.253984412382908
1185000	-0.266909636456192
1185833	-0.279834860529476
1186667	-0.292775601078238
1187500	-0.305700825151522
1188333	-0.318626049224805
1189167	-0.331566789773567
1190000	-0.344492013846851
1190833	0.642582762079865
1191667	0.629642021531103
1192500	0.616716797457819
1193333	0.603791573384535
1194167	0.590850832835774
1195000	0.57792560876249
1195833	0.565000384689206
1196667	0.552059644140444
1197500	1.53913442006716
1198333	1.52620919599388
1199167	1.51326845544511
1200000	1.50034323137183
1200833	1.48741800729855
1201667	2.47447726674978
1202500	2.4615520426765
1203333	1.44862681860322
1204167	1.43568607805446
1205000	1.42276085398117
1205833	1.40983562990789
1206667	1.39689488935913
1207500	1.38396966528584
1208333	1.37104444121256
1209167	0.358103700663796
1210000	0.345178476590512
1210833	0.332253252517228
1211667	0.319312511968466
1212500	0.306387287895182
1213333	0.293462063821899
1214167	0.280521323273137
1215000	0.267596099199853
1215833	0.254670875126569
1216667	0.241730134577807
1217500	0.228804910504523
1218333	0.21587968643124
1219167	0.202938945882477
1220000	0.190013721809194
1220833	-0.82291150226409
1221667	0.164147757187148
1222500	0.151222533113864
1223333	0.13829730904058
1224167	0.125356568491818
1225000	1.11243134441853
1225833	1.09950612034525
1226667	1.08656537979649
1227500	1.0736401557232
1228333	1.06071493164992
1229167	1.04777419110116
1230000	1.03484896702788
1230833	0.0219237429545913
1231667	0.0089830024058295
1232500	0.996057778332546
1233333	0.983132554259262
1234167	0.9701918137105
1235000	1.95726658963722
1235833	1.94434136556393
1236667	1.93140062501517
1237500	1.91847540094189
1238333	1.9055501768686
1239167	1.89260943631984
1240000	1.87968421224656
1240833	1.86675898817327
1241667	1.85381824762451
1242500	1.84089302355123
1243333	1.82796779947794
1244167	1.81502705892918
1245000	1.8021018348559
1245833	1.78917661078261
1246667	1.77623587023385
1247500	1.76331064616057
1248333	0.750385422087284
1249167	0.737444681538523
1250000	0.724519457465238
1250833	0.711594233391954
1251667	0.698653492843193
1252500	0.685728268769909
1253333	0.672803044696625
1254167	0.659862304147863
1255000	1.64693708007458
1255833	1.6340118560013
1256667	0.621071115452533
1257500	0.60814589137925
1258333	0.595220667305965
1259167	0.582279926757204
1260000	0.56935470268392
1260833	0.556429478610636
1261667	0.543488738061874
1262500	0.53056351398859
1263333	0.517638289915307
1264167	0.504697549366544
1265000	0.491772325293261
1265833	0.478847101219977
1266667	0.465906360671215
1267500	0.452981136597931
1268333	0.440055912524647
1269167	1.42711517197589
1270000	1.4141899479026
1270833	1.40126472382932
1271667	1.38832398328056
1272500	1.37539875920727
1273333	1.36247353513399
1274167	1.34953279458523
1275000	0.336607570511942
1275833	0.323682346438659
1276667	1.3107416058899
1277500	1.29781638181661
1278333	1.28489115774333
1279167	2.27195041719457
1280000	2.25902519312128
1280833	2.246099969048
1281667	2.23315922849924
1282500	2.22023400442595
1283333	2.20730878035267
1284167	2.19436803980391
1285000	2.18144281573062
1285833	2.16851759165734
1286667	2.15557685110858
1287500	1.14265162703529
1288333	1.12972640296201
1289167	1.11678566241325
1290000	1.10386043833996
1290833	2.09093521426668
1291667	2.07799447371792
1292500	2.06506924964464
1293333	2.05214402557135
1294167	2.03920328502259
1295000	2.02627806094931
1295833	2.01335283687602
1296667	2.00041209632726
1297500	1.98748687225398
1298333	1.97456164818069
1299167	1.96162090763193
1300000	1.94869568355865
1300833	1.93577045948536
1301667	1.9228297189366
1302500	1.90990449486332
1303333	0.896979270790033
1304167	0.884038530241271
1305000	0.871113306167987
1305833	0.858188082094704
1306667	0.845247341545941
1307500	0.832322117472658
1308333	0.819396893399374
1309167	0.806456152850612
1310000	0.793530928777328
1310833	0.780605704704044
1311667	0.767664964155282
1312500	0.754739740081999
1313333	0.741814516008715
1314167	0.728873775459952
1315000	0.715948551386669
1315833	0.703023327313385
1316667	0.690082586764623
1317500	0.677157362691339
1318333	0.664232138618055
1319167	0.651291398069294
1320000	0.63836617399601
1320833	0.625440949922726
1321667	0.612500209373964
1322500	0.59957498530068
1323333	0.586649761227396
1324167	0.573709020678634
1325000	0.560783796605351
1325833	0.547858572532066
1326667	1.5349178319833
1327500	1.52199260791002
1328333	1.50906738383674
1329167	1.49612664328798
1330000	1.48320141921469
1330833	1.47027619514141
1331667	0.457335454592646
1332500	0.444410230519362
1333333	0.431485006446078
1334167	-0.581455734102684
1335000	-0.594380958175968
1335833	-0.607306182249252
1336667	0.379446506748595
1337500	0.365083019997076
1338333	0.350719533245556
1339167	0.336338803412702
1340000	0.321975316661182
1340833	0.307611829909662
1341667	0.293231100076808
1342500	0.278867613325288
1343333	0.264504126573769
1344167	1.25012339674091
1345000	1.23575990998939
1345833	1.22139642323787
1346667	0.207015693405021
1347500	0.192652206653501
1348333	0.178288719901981
1349167	0.163907990069127
1350000	0.149544503317608
1350833	1.13518101656609
1351667	1.12080028673323
1352500	2.10643679998171
1353333	2.09207331323019
1354167	2.07769258339734
1355000	2.06332909664582
1355833	3.0489656098943
1356667	3.03458488006145
1357500	3.02022139330993
1358333	3.00585790655841
1359167	2.99147717672555
1360000	2.97711368997403
1360833	2.96275020322251
1361667	2.94836947338966
1362500	2.93400598663814
1363333	2.91964249988662
1364167	3.90526177005377
1365000	3.89089828330225
1365833	3.87653479655073
1366667	3.86215406671787
1367500	3.84779057996635
1368333	3.83342709321483
1369167	4.81904636338198
1370000	4.80468287663046
1370833	4.79031938987894
1371667	4.77593866004609
1372500	4.76157517329457
1373333	4.74721168654305
1374167	4.73283095671019
1375000	4.71846746995867
1375833	4.70410398320715
1376667	4.6897232533743
1377500	4.67535976662278
1378333	3.66099627987126
1379167	3.6466155500384
1380000	3.63225206328688
1380833	2.61788857653536
1381667	2.60350784670251
1382500	3.58914435995099
1383333	3.57478087319947
1384167	3.56040014336662
1385000	3.5460366566151
1385833	3.53167316986358
1386667	3.51729244003072
1387500	3.5029289532792
1388333	3.48856546652768
1389167	3.47418473669483
1390000	3.45982124994331
1390833	3.44545776319179
1391667	3.43107703335894
1392500	3.41671354660742
1393333	3.4023500598559
1394167	2.38796933002304
1395000	2.37360584327152
1395833	3.35924235652
1396667	2.34486162668715
1397500	2.33049813993563
1398333	2.31613465318411
1399167	1.30175392335125
1400000	1.28739043659974
1400833	1.27302694984822
1401667	2.25864622001536
1402500	2.24428273326384
1403333	2.22991924651232
1404167	1.21553851667947
1405000	1.20117502992795
1405833	0.186811543176429
1406667	0.172430813343574
1407500	0.158067326592055
1408333	0.143703839840535
1409167	0.129323110007681
1410000	0.114959623256161
1410833	0.100596136504642
1411667	0.0862154066717871
1412500	-0.928148080079732
1413333	-0.942511566831253
1414167	-0.956892296664106
1415000	-0.971255783415626
1415833	-0.985619270167146
1416667	0
1417500	0.00854358974358949
1418333	0.0170871794871799
1419167	0.0256410256410256
1420000	0.034184615384615
1420833	-0.957271794871795
1421667	-0.948717948717949
1422500	-0.940174358974359
1423333	-0.931630769230769
1424167	-0.923076923076923
1425000	-0.914533333333333
1425833	-0.905989743589743
1426667	-0.897435897435898
1427500	-0.888892307692307
1428333	-0.880348717948718
1429167	-0.871794871794872
1430000	-0.863251282051282
1430833	0.145292307692308
1431667	0.153846153846154
1432500	0.162389743589744
1433333	1.17093333333333
1434167	0.17948717948718
1435000	0.188030769230769
1435833	0.196574358974359
1436667	0.205128205128205
1437500	0.213671794871795
1438333	0.222215384615384
1439167	0.230769230769231
1440000	0.23931282051282
1440833	0.247856410256411
1441667	0.256410256410256
1442500	1.26495384615385
1443333	1.27349743589744
1444167	0.282051282051282
1445000	1.29059487179487
1445833	1.29913846153846
1446667	1.30769230769231
1447500	1.3162358974359
1448333	1.32477948717949
1449167	1.33333333333333
1450000	1.34187692307692
1450833	1.35042051282051
1451667	1.35897435897436
1452500	1.36751794871795
1453333	1.37606153846154
1454167	0.384615384615385
1455000	0.393158974358975
1455833	0.401702564102564
1456667	0.410256410256411
1457500	-0.5812
1458333	-0.57265641025641
1459167	0.435897435897436
1460000	0.444441025641026
1460833	0.452984615384615
1461667	0.461538461538462
1462500	-0.529917948717949
1463333	-0.521374358974359
1464167	-0.512820512820513
1465000	-0.504276923076923
1465833	-0.495733333333334
1466667	-0.487179487179487
1467500	-0.478635897435898
1468333	-0.470092307692307
1469167	-0.461538461538462
1470000	-0.452994871794871
1470833	-0.444451282051282
1471667	-1.43589743589744
1472500	-1.42735384615385
1473333	-1.41881025641026
1474167	-1.41025641025641
1475000	-0.40171282051282
1475833	-0.393169230769231
1476667	-0.384615384615385
1477500	-0.376071794871795
1478333	-1.36752820512821
1479167	-1.35897435897436
1480000	-1.35043076923077
1480833	-1.34188717948718
1481667	-1.33333333333333
1482500	-1.32478974358974
1483333	-1.31624615384615
1484167	-1.30769230769231
1485000	-0.299148717948718
1485833	-0.290605128205129
1486667	-0.282051282051282
1487500	-0.273507692307692
1488333	-0.264964102564102
1489167	-0.256410256410256
1490000	-0.247866666666667
1490833	-0.239323076923077
1491667	-0.230769230769231
1492500	0.777774358974359
1493333	0.786317948717949
1494167	0.794871794871795
1495000	0.803415384615384
1495833	0.811958974358975
1496667	0.82051282051282
1497500	0.829056410256411
1498333	0.8376
1499167	0.846153846153846
1500000	0.854697435897436
1500833	-0.136758974358974
1501667	-0.128205128205128
1502500	0.880338461538462
1503333	0.888882051282051
1504167	0.897435897435898
1505000	-0.0940205128205127
1505833	-0.0854769230769232
1506667	-0.0769230769230767
1507500	-0.0683794871794872
1508333	-0.0598358974358977
1509167	-0.0512820512820511
1510000	-1.04273846153846
1510833	-1.03419487179487
1511667	-0.0256410256410256
1512500	-0.0170974358974361
1513333	-0.00855384615384658
1514167	0
1515000	0
1515833	0
1516667	0
1517500	0
1518333	0
1519167	0
1520000	0
1520833	0
1521667	0
1522500	1
1523333	1
1524167	1
1525000	1
1525833	1
1526667	1
1527500	1
1528333	1
1529167	1
1530000	1
1530833	1
1531667	1
1532500	1
1533333	1
1534167	1
1535000	1
1535833	0
1536667	0
1537500	1
1538333	1
1539167	1
1540000	1
1540833	1
1541667	1
1542500	2
1543333	2
1544167	2
1545000	3
1545833	2
1546667	2
1547500	2
1548333	1
1549167	1
1550000	1
1550833	1
1551667	1
1552500	1
1553333	1
1554167	1
1555000	1
1555833	1
1556667	1
1557500	1
1558333	1
1559167	1
1560000	1
1560833	1
1561667	1
1562500	1
1563333	1
1564167	1
1565000	1
1565833	1
1566667	1
1567500	1
1568333	1
1569167	1
1570000	1
1570833	1
1571667	0
1572500	0
1573333	0
1574167	1
1575000	1
1575833	2
1576667	2
1577500	2
1578333	1
1579167	1
1580000	1
1580833	1
1581667	1
1582500	1
1583333	1
1584167	1
1585000	1
1585833	1
1586667	1
1587500	1
1588333	0
1589167	0
1590000	0
1590833	0
1591667	0
1592500	0
1593333	0
1594167	0
1595000	0
1595833	0
1596667	0
1597500	1
1598333	1
1599167	1
1600000	1
1600833	1
1601667	1
1602500	1
1603333	1
1604167	1
1605000	0
1605833	0
1606667	0
1607500	0
1608333	0
1609167	0
1610000	0
1610833	0
1611667	0
1612500	-0.00719118484786208
1613333	-0.0143823696957233
1614167	-0.0215821874185522
1615000	-0.0287733722664143
1615833	-0.0359645571142755
1616667	-0.0431643748371044
1617500	-1.05035555968497
1618333	-1.05754674453283
1619167	-1.06474656225566
1620000	-1.07193774710352
1620833	-0.0791289319513808
1621667	-0.0863287496742098
1622500	-0.093519934522071
1623333	-0.100711119369933
1624167	-0.107910937092762
1625000	-0.115102121940623
1625833	-0.122293306788485
1626667	-0.129493124511314
1627500	-0.136684309359176
1628333	-0.143875494207037
1629167	-0.151075311929866
1630000	-0.158266496777729
1630833	-0.16545768162559
1631667	-1.17265749934842
1632500	-1.17984868419628
1633333	-0.187039869044142
1634167	-0.194239686766972
1635000	-0.201430871614833
1635833	-0.208622056462695
1636667	-0.215821874185524
1637500	-0.223013059033385
1638333	-0.230204243881247
1639167	0.762595938395924
1640000	0.755404753548063
1640833	0.748213568700201
1641667	0.741013750977372
1642500	0.733822566129509
1643333	0.726631381281648
1644167	0.719431563558819
1645000	0.712240378710957
1645833	0.705049193863096
1646667	0.697849376140267
1647500	0.690658191292405
1648333	-0.316532993555456
1649167	-0.323732811278286
1650000	-0.330923996126147
1650833	-0.338115180974009
1651667	-0.345314998696838
1652500	-0.352506183544699
1653333	-0.359697368392562
1654167	-0.36689718611539
1655000	-0.374088370963252
1655833	-0.381279555811114
1656667	-0.388479373533943
1657500	-0.395670558381805
1658333	-0.402861743229666
1659167	-0.410061560952495
1660000	0.582747254199643
1660833	-0.424443930648218
1661667	-0.431643748371047
1662500	-0.438834933218909
1663333	-0.44602611806677
1664167	-0.4532259357896
1665000	0.539582879362539
1665833	0.532391694514676
1666667	0.525191876791848
1667500	0.518000691943986
1668333	0.510809507096124
1669167	-0.496390310626705
1670000	-0.503581495474566
1670833	-1.51077268032243
1671667	-1.51797249804526
1672500	-1.52516368289312
1673333	-1.53235486774098
1674167	-1.53955468546381
1675000	-1.54674587031167
1675833	-0.553937055159532
1676667	-0.561136872882361
1677500	-0.568328057730223
1678333	0.424480757421915
1679167	0.417280939699086
1680000	0.410089754851224
1680833	0.402898570003362
1681667	0.395698752280533
1682500	0.388507567432672
1683333	0.38131638258481
1684167	0.374116564861981
1685000	0.36692538001412
1685833	0.359734195166258
1686667	0.352534377443429
1687500	0.345343192595568
1688333	0.338152007747706
1689167	0.330952190024877
1690000	0.323761005177015
1690833	0.316569820329153
1691667	1.30937000260632
1692500	1.30217881775846
1693333	1.2949876329106
1694167	1.28778781518777
1695000	1.28059663033991
1695833	0.273405445492048
1696667	0.266205627769219
1697500	0.259014442921358
1698333	0.251823258073496
1699167	0.244623440350667
1700000	0.237432255502805
1700833	0.230241070654944
1701667	0.223041252932115
1702500	0.215850068084253
1703333	-0.791341116763609
1704167	-0.798540934486438
1705000	-0.8057321193343
1705833	-1.81292330418216
1706667	-0.82012312190499
1707500	-0.827314306752852
1708333	-0.834505491600713
1709167	-0.841705309323543
1710000	-0.848896494171404
1710833	-0.856087679019266
1711667	-0.863287496742095
1712500	-0.870478681589956
1713333	-0.877669866437818
1714167	0.115130315839353
1715000	0.107939130991491
1715833	0.100747946143629
1716667	-0.9064518715792
1717500	-0.913643056427061
1718333	0.0791657587250771
1719167	0.0719659410022482
1720000	0.0647747561543861
1720833	0.0575835713065249
1721667	0.050383753583696
1722500	0.0431925687358339
1723333	0.0360013838879727
1724167	0.0288015661651428
1725000	0.0216103813172817
1725833	0.0144191964694196
1726667	0.0151243338586555
1727500	0.0283210962528067
1728333	0.0415178586469578
1729167	0.0547304634929633
1730000	0.0679272258871144
1730833	0.0811239882812655
1731667	0.0943365931272702
1732500	0.107533355521421
1733333	0.120730117915572
1734167	0.133942722761577
1735000	0.147139485155728
1735833	0.16033624754988
1736667	0.173548852395885
1737500	0.186745614790036
1738333	0.199942377184187
1739167	1.21315498203019
1740000	1.22635174442434
1740833	1.23954850681849
1741667	1.2527611116645
1742500	0.265957874058651
1743333	0.279154636452802
1744167	0.292367241298806
1745000	-0.694435996307043
1745833	-0.681239233912891
1746667	-0.668026629066887
1747500	0.345170133327265
1748333	0.358366895721416
1749167	0.371579500567421
1750000	0.384776262961572
1750833	0.397973025355723
1751667	0.411185630201728
1752500	1.42438239259588
1753333	1.43757915499003
1754167	1.45079175983604
1755000	1.46398852223019
1755833	1.47718528462434
1756667	1.49039788947034
1757500	1.50359465186449
1758333	0.516791414258645
1759167	0.53000401910465
1760000	0.5432007814988
1760833	0.556397543892952
1761667	0.569610148738957
1762500	0.582806911133108
1763333	0.596003673527259
1764167	0.609216278373264
1765000	-0.377586959232585
1765833	0.635609803161566
1766667	0.648822408007572
1767500	0.662019170401723
1768333	0.675215932795874
1769167	0.688428537641879
1770000	0.70162530003603
1770833	0.714822062430181
1771667	0.728034667276185
1772500	0.741231429670338
1773333	0.754428192064488
1774167	0.767640796910493
1775000	0.780837559304644
1775833	0.794034321698796
1776667	0.8072469265448
1777500	0.820443688938951
1778333	0.833640451333102
1779167	0.846853056179108
1780000	-0.139950181426741
1780833	-0.12675341903259
1781667	-0.113540814186585
1782500	-1.10034405179243
1783333	-0.087147289398283
1784167	-0.0739346845522775
1785000	-0.0607379221581272
1785833	-0.0475411597639752
1786667	-0.0343285549179706
1787500	-0.0211317925238195
1788333	-0.00793503012966834
1789167	0.00527757471633672
1790000	0.0184743371104874
1790833	0.0316710995046385
1791667	0.039382997238504
1792500	1.0393829972385
1793333	1.0393829972385
1794167	1.0393829972385
1795000	0.039382997238504
1795833	0.039382997238504
1796667	0.039382997238504
1797500	0.039382997238504
1798333	0.039382997238504
1799167	0.039382997238504
1800000	0.039382997238504
1800833	1.0393829972385
1801667	1.0393829972385
1802500	1.0393829972385
1803333	2.0393829972385
1804167	2.0393829972385
1805000	2.0393829972385
1805833	2.0393829972385
1806667	2.0393829972385
1807500	1.0393829972385
1808333	1.0393829972385
1809167	1.0393829972385
1810000	1.0393829972385
1810833	1.0393829972385
1811667	1.0393829972385
1812500	0.039382997238504
1813333	0.039382997238504
1814167	0.039382997238504
1815000	0.039382997238504
1815833	0.039382997238504
1816667	0.039382997238504
1817500	0.039382997238504
1818333	0.039382997238504
1819167	0.039382997238504
1820000	1.0393829972385
1820833	1.0393829972385
1821667	1.0393829972385
1822500	2.0393829972385
1823333	2.0393829972385
1824167	2.0393829972385
1825000	2.0393829972385
1825833	2.0393829972385
1826667	2.0393829972385
1827500	1.0393829972385
1828333	1.0393829972385
1829167	0.039382997238504
1830000	0.039382997238504
1830833	0.039382997238504
1831667	0.039382997238504
1832500	0.039382997238504
1833333	0.039382997238504
1834167	0.039382997238504
1835000	0.039382997238504
1835833	0.039382997238504
1836667	0.039382997238504
1837500	1.0393829972385
1838333	1.0393829972385
1839167	1.0393829972385
1840000	1.0393829972385
1840833	1.0393829972385
1841667	1.0393829972385
1842500	1.0393829972385
1843333	1.0393829972385
1844167	1.0393829972385
1845000	1.0393829972385
1845833	1.0393829972385
1846667	1.0393829972385
1847500	0.039382997238504
1848333	0.039382997238504
1849167	0.039382997238504
1850000	0.039382997238504
1850833	0.0426957192912503
1851667	0.0529054593995264
1852500	0.063102957613189
1853333	0.0733004558268511
1854167	0.0835101959351277
1855000	0.0937076941487898
1855833	0.103905192362452
1856667	0.114114932470728
1857500	0.124312430684391
1858333	-0.865490071101947
1859167	-0.85528033099367
1860000	-0.845082832780008
1860833	-0.834885334566346
1861667	-0.824675594458069
1862500	-0.814478096244407
1863333	-0.804280598030745
1864167	-0.794070857922469
1865000	-0.783873359708806
1865833	-0.773675861495144
1866667	-0.763466121386867
1867500	-1.75326862317321
1868333	-1.74307112495954
1869167	-1.73286138485127
1870000	-1.7226638866376
1870833	-1.71246638842394
1871667	-2.70225664831567
1872500	-2.692059150102
1873333	-3.68186165188834
1874167	-4.67165191178006
1875000	-4.6614544135664
1875833	-5.65125691535274
1876667	-5.64104717524446
1877500	-5.6308496770308
1878333	-6.62065217881714
1879167	-7.61044243870886
1880000	-8.6002449404952
1880833	-8.59004744228154
1881667	-9.57983770217326
1882500	-10.5696402039596
1883333	-10.5594427057459
1884167	-11.5492329656377
1885000	-12.539035467424
1885833	-13.5288379692103
1886667	-14.5186282291021
1887500	-15.5084307308884
1888333	-16.4982332326747
1889167	-17.4880234925665
1890000	-18.4778259943528
1890833	-19.4676284961391
1891667	-20.4574187560309
1892500	-22.4472212578172
1893333	-23.4370237596035
1894167	-25.4268140194953
1895000	-26.4166165212816
1895833	-27.4064190230679
1896667	-29.3962092829597
1897500	-30.386011784746
1898333	-32.3758142865323
1899167	-34.3656045464241
1900000	-35.3554070482104
1900833	-36.3452095499967
1901667	-38.3349998098885
1902500	-40.3248023116748
1903333	-41.3146048134611
1904167	-42.3043950733529
1905000	-43.2941975751392
1905833	-45.2840000769255
1906667	-46.2737903368173
1907500	-47.2635928386036
1908333	-48.2533953403899
1909167	-48.2431856002816
1910000	-49.232988102068
1910833	-49.2227906038543
1911667	-50.212580863746
1912500	-51.2023833655324
1913333	-52.1921858673187
1914167	-52.1819761272104
1915000	-52.1717786289968
1915833	-53.1615811307831
1916667	-52.1513713906748
1917500	-52.1411738924612
1918333	-52.1309763942475
1919167	-52.1207666541392
1920000	-51.1105691559256
1920833	-50.1003716577119
1921667	-50.0901619176036
1922500	-49.07996441939
1923333	-48.0697669211763
1924167	-47.059557181068
1925000	-46.0493596828544
1925833	-45.0391621846407
1926667	-44.0289524445324
1927500	-43.0187549463188
1928333	-41.0085574481051
1929167	-39.9983477079968
1930000	-37.9881502097832
1930833	-36.9779527115695
1931667	-34.9677429714612
1932500	-32.9575454732476
1933333	-31.9473479750339
1934167	-29.9371382349256
1935000	-28.926940736712
1935833	-27.9167432384983
1936667	-25.90653349839
1937500	-23.8963360001764
1938333	-22.8861385019627
1939167	-20.8759287618544
1940000	-19.8657312636408
1940833	-17.8555337654271
1941667	-16.8453240253188
1942500	-15.8351265271052
1943333	-14.8249290288915
1944167	-12.8147192887832
1945000	-11.8045217905696
1945833	-10.7943242923559
1946667	-9.78411455224764
1947500	-8.77391705403397
1948333	-7.76371955582031
1949167	-6.75350981571204
1950000	-6.74331231749837
1950833	-5.73311481928471
1951667	-5.72290507917643
1952500	-4.71270758096277
1953333	-4.70251008274911
1954167	-3.69230034264083
1955000	-3.68210284442717
1955833	-3.67190534621351
1956667	-3.66169560610523
1957500	-3.65149810789157
1958333	-2.64130060967791
1959167	-2.63109086956963
1960000	-1.62089337135597
1960833	-1.61069587314231
1961667	-1.60048613303403
1962500	-0.590288634820368
1963333	-0.580091136606705
1964167	-0.569881396498429
1965000	-0.559683898284767
1965833	-0.549486400071104
1966667	-0.539276659962828
1967500	-0.529079161749165
1968333	0.481118336464497
1969167	0.491328076572773
1970000	0.501525574786435
1970833	0.511723073000097
1971667	0.521932813108374
1972500	-0.467869688677964
1973333	-0.457672190464302
1974167	-0.447462450356025
1975000	-1.43726495214236
1975833	-1.4270674539287
1976667	-1.41685771382042
1977500	-1.42957635287831
1978333	-1.44299870095442
1979167	-2.45643716229352
1980000	-2.46985951036962
1980833	-2.48328185844572
1981667	-2.49672031978482
1982500	-2.51014266786092
1983333	-2.52356501593702
1984167	-3.53700347727612
1985000	-3.55042582535223
1985833	-3.56384817342833
1986667	-3.57728663476743
1987500	-3.59070898284353
1988333	-3.60413133091963
1989167	-4.61756979225873
1990000	-4.63099214033483
1990833	-4.64441448841094
1991667	-4.65785294975004
1992500	-4.67127529782614
1993333	-4.68469764590224
1994167	-4.69813610724134
1995000	-3.71155845531744
1995833	-3.72498080339354
1996667	-3.73841926473264
1997500	-3.75184161280874
1998333	-4.76526396088485
1999167	-4.77870242222395
2000000	-4.79212477030005
2000833	-4.80554711837615
2001667	-4.81898557971525
2002500	-4.83240792779135
2003333	-5.84583027586745
2004167	-5.85926873720655
2005000	-6.87269108528266
2005833	-6.88611343335876
2006667	-7.89955189469786
2007500	-7.91297424277396
2008333	-8.92639659085006
2009167	-8.93983505218916
2010000	-9.95325740026526
2010833	-9.96667974834137
2011667	-10.9801182096805
2012500	-11.9935405577566
2013333	-12.0069629058327
2014167	-13.0204013671718
2015000	-13.0338237152479
2015833	-14.047246063324
2016667	-15.0606845246631
2017500	-15.0741068727392
2018333	-16.0875292208153
2019167	-17.1009676821544
2020000	-18.1143900302305
2020833	-19.1278123783066
2021667	-20.1412508396457
2022500	-21.1546731877218
2023333	-22.1680955357979
2024167	-22.181533997137
2025000	-23.1949563452131
2025833	-24.2083786932892
2026667	-25.2218171546283
2027500	-26.2352395027044
2028333	-27.2486618507805
2029167	-28.2621003121196
2030000	-29.2755226601957
2030833	-29.2889450082718
2031667	-30.3023834696109
2032500	-30.315805817687
2033333	-31.3292281657631
2034167	-32.3426666271022
2035000	-32.3560889751783
2035833	-33.3695113232544
2036667	-34.3829497845935
2037500	-34.3963721326696
2038333	-34.4097944807457
2039167	-35.4232329420848
2040000	-35.4366552901609
2040833	-36.450077638237
2041667	-36.4635160995761
2042500	-37.4769384476522
2043333	-37.4903607957283
2044167	-37.5037992570674
2045000	-36.5172216051435
2045833	-36.5306439532196
2046667	-36.5440824145587
2047500	-36.5575047626348
2048333	-36.5709271107109
2049167	-35.58436557205
2050000	-35.5977879201261
2050833	-34.6112102682022
2051667	-34.6246487295413
2052500	-34.6380710776174
2053333	-34.6514934256935
2054167	-33.6649318870326
2055000	-32.6783542351087
2055833	-31.6917765831848
2056667	-31.7052150445239
2057500	-30.7186373926
2058333	-30.7320597406761
2059167	-29.7454982020152
2060000	-29.7589205500913
2060833	-28.7723428981674
2061667	-28.7857813595065
2062500	-27.7992037075826
2063333	-26.8126260556587
2064167	-26.8260645169978
2065000	-25.8394868650739
2065833	-24.85290921315
2066667	-24.8663476744891
2067500	-23.8797700225653
2068333	-22.8931923706414
2069167	-22.9066308319805
2070000	-21.9200531800566
2070833	-20.9334755281327
2071667	-19.9469139894718
2072500	-19.9603363375479
2073333	-18.973758685624
2074167	-17.9871971469631
2075000	-17.0006194950392
2075833	-16.0140418431153
2076667	-15.0274803044544
2077500	-15.0409026525305
2078333	-14.0543250006066
2079167	-13.0677634619457
2080000	-13.0811858100218
2080833	-12.0946081580979
2081667	-11.108046619437
2082500	-11.1214689675131
2083333	-10.1348913155892
2084167	-10.1483297769283
2085000	-9.16175212500438
2085833	-8.17517447308048
2086667	-8.18861293441958
2087500	-8.20203528249568
2088333	-8.21545763057178
2089167	-7.22889609191088
2090000	-6.24231843998698
2090833	-6.25574078806309
2091667	-5.26917924940219
2092500	-5.28260159747829
2093333	-5.29602394555439
2094167	-4.30946240689349
2095000	-4.32288475496959
2095833	-4.33630710304569
2096667	-3.34974556438479
2097500	-3.3631679124609
2098333	-2.376590260537
2099167	-2.3900287218761
2100000	-2.4034510699522
2100833	-2.4168734180283
2101667	-2.4303118793674
2102500	-1.4437342274435
2103333	-1.45715657551961
2104167	-1.4705950368587
2105000	-1.48401738493481
2105833	-1.49743973301091
2106667	-1.51087819435001
2107500	-0.524300542426111
2108333	-0.537722890502213
2109167	-0.551161351841312
2110000	-0.564583699917415
2110833	-0.578006047993517
2111667	-0.591444509332616
2112500	-0.604866857408719
2113333	-0.618289205484821
2114167	-0.631727666823919
2115000	0.354849985099978
2115833	0.341427637023875
2116667	0.327989175684776
2117500	0.314566827608674
2118333	0.301144479532572
2119167	0.287706018193473
2120000	0.27428367011737
2120833	0.260861322041269
2121667	0.247422860702169
2122500	0.234000512626066
2123333	-0.779421835450036
2124167	0.207139703210865
2125000	0.193717355134763
2125833	0.181367534637871
2126667	0.179232112045782
2127500	0.177099249912438
2128333	0.174966387779093
2129167	0.172830965187004
2130000	0.17069810305366
2130833	0.168565240920315
2131667	0.166429818328226
2132500	1.16429695619488
2133333	1.16216409406154
2134167	1.16002867146945
2135000	1.1578958093361
2135833	1.15576294720276
2136667	1.15362752461067
2137500	1.15149466247733
2138333	1.14936180034398
2139167	1.14722637775189
2140000	1.14509351561855
2140833	1.1429606534852
2141667	1.14082523089311
2142500	1.13869236875977
2143333	1.13655950662643
2144167	1.13442408403434
2145000	1.13229122190099
2145833	1.13015835976765
2146667	1.12802293717556
2147500	0.125890075042214
2148333	0.12375721290887
2149167	0.121621790316781
2150000	0.119488928183436
2150833	0.117356066050092
2151667	0.115220643458003
2152500	0.113087781324658
2153333	1.11095491919131
2154167	1.10881949659923
2155000	1.10668663446588
2155833	0.104553772332535
2156667	0.102418349740447
2157500	0.100285487607103
2158333	0.098152625473757
2159167	0.0960172028816695
2160000	0.0938843407483239
2160833	1.09175147861498
2161667	0.0896160560228916
2162500	0.087483193889546
2163333	0.0853503317562012
2164167	1.08321490916411
2165000	1.08108204703077
2165833	0.0789491848974233
2166667	0.0768137623053349
2167500	0.0746809001719901
2168333	0.0725480380386454
2169167	0.070412615446557
2170000	0.0682797533132122
2170833	0.0661468911798675
2171667	0.0640114685877791
2172500	0.0618786064544343
2173333	0.0597457443210896
2174167	0.0576103217290012
2175000	0.0554774595956564
2175833	0.0533445974623117
2176667	0.0512091748702233
2177500	0.0490763127368785
2178333	0.0469434506035338
2179167	0.0448080280114453
2180000	0.0426751658781006
2180833	0.0405423037447559
2181667	0.0384068811526674
2182500	0.0362740190193227
2183333	0.034141156885978
2184167	0.0320057342938895
2185000	1.02987287216054
2185833	1.0277400100272
2186667	1.02560458743511
2187500	0.0234717253017669
2188333	0.0213388631684222
2189167	0.0192034405763337
2190000	-0.982929421557011
2190833	-0.985062283690356
2191667	-0.987197706282444
2192500	-0.989330568415789
2193333	-0.991463430549134
2194167	0.00640114685877791
2195000	0.00426828472543317
2195833	0.00213542259208843
2196667	0
2197500	0.00854358974358949
2198333	0.0170871794871799
2199167	0.0256410256410256
2200000	0.034184615384615
2200833	0.0427282051282054
2201667	0.0512820512820511
2202500	-0.940174358974359
2203333	-0.931630769230769
2204167	-0.923076923076923
2205000	-0.914533333333333
2205833	-0.905989743589743
2206667	-0.897435897435898
2207500	0.111107692307693
2208333	0.119651282051282
2209167	0.128205128205128
2210000	0.136748717948718
2210833	0.145292307692308
2211667	0.153846153846154
2212500	0.162389743589744
2213333	0.170933333333333
2214167	1.17948717948718
2215000	1.18803076923077
2215833	1.19657435897436
2216667	1.20512820512821
2217500	1.21367179487179
2218333	1.22221538461538
2219167	1.23076923076923
2220000	0.23931282051282
2220833	0.247856410256411
2221667	0.256410256410256
2222500	0.264953846153846
2223333	0.273497435897436
2224167	0.282051282051282
2225000	0.290594871794871
2225833	0.299138461538462
2226667	0.307692307692307
2227500	0.316235897435897
2228333	1.32477948717949
2229167	1.33333333333333
2230000	0.341876923076923
2230833	0.350420512820513
2231667	0.358974358974359
2232500	0.367517948717949
2233333	0.376061538461538
2234167	0.384615384615385
2235000	0.393158974358975
2235833	0.401702564102564
2236667	0.410256410256411
2237500	0.4188
2238333	-0.57265641025641
2239167	-0.564102564102564
2240000	-0.555558974358974
2240833	-0.547015384615385
2241667	-0.538461538461538
2242500	-0.529917948717949
2243333	-0.521374358974359
2244167	-0.512820512820513
2245000	-0.504276923076923
2245833	-0.495733333333334
2246667	-1.48717948717949
2247500	-1.4786358974359
2248333	-1.47009230769231
2249167	-1.46153846153846
2250000	-1.45299487179487
2250833	-0.444451282051282
2251667	-0.435897435897436
2252500	-1.42735384615385
2253333	-1.41881025641026
2254167	-0.410256410256411
2255000	-0.40171282051282
2255833	-0.393169230769231
2256667	-0.384615384615385
2257500	-0.376071794871795
2258333	-0.367528205128205
2259167	-0.358974358974359
2260000	-0.350430769230769
2260833	-0.34188717948718
2261667	-0.333333333333333
2262500	-0.324789743589744
2263333	0.683753846153846
2264167	0.692307692307693
2265000	0.700851282051282
2265833	1.70939487179487
2266667	1.71794871794872
2267500	1.72649230769231
2268333	1.7350358974359
2269167	1.74358974358974
2270000	1.75213333333333
2270833	1.76067692307692
2271667	1.76923076923077
2272500	1.77777435897436
2273333	0.786317948717949
2274167	0.794871794871795
2275000	0.803415384615384
2275833	0.811958974358975
2276667	0.82051282051282
2277500	0.829056410256411
2278333	-0.1624
2279167	-0.153846153846154
2280000	-0.145302564102564
2280833	-0.136758974358974
2281667	-0.128205128205128
2282500	-0.119661538461538
2283333	0.888882051282051
2284167	0.897435897435898
2285000	0.905979487179487
2285833	0.914523076923077
2286667	0.923076923076923
2287500	0.931620512820513
2288333	0.940164102564102
2289167	0.948717948717949
2290000	-0.0427384615384616
2290833	-0.0341948717948721
2291667	-0.0256410256410256
2292500	-0.0170974358974361
2293333	-0.00855384615384658
2294167	0
2295000	-0.00854358974358949
2295833	-0.0170871794871799
2296667	-0.0256410256410256
2297500	-0.034184615384615
2298333	-0.0427282051282054
2299167	0.948717948717949
2300000	-0.0598256410256406
2300833	-0.068369230769231
2301667	-0.0769230769230767
2302500	-0.085466666666667
2303333	-0.0940102564102565
2304167	-0.102564102564102
2305000	-0.111107692307693
2305833	-0.119651282051282
2306667	-0.128205128205128
2307500	-0.136748717948718
2308333	-0.145292307692308
2309167	-0.153846153846154
2310000	-0.162389743589744
2310833	-0.170933333333333
2311667	-0.17948717948718
2312500	-0.188030769230769
2313333	-1.19657435897436
2314167	-1.20512820512821
2315000	-1.21367179487179
2315833	-1.22221538461538
2316667	-1.23076923076923
2317500	-1.23931282051282
2318333	-1.24785641025641
2319167	-1.25641025641026
2320000	-0.264953846153846
2320833	-0.273497435897436
2321667	-0.282051282051282
2322500	-0.290594871794871
2323333	-0.299138461538462
2324167	-0.307692307692307
2325000	-0.316235897435897
2325833	-0.324779487179487
2326667	-0.333333333333333
2327500	-0.341876923076923
2328333	-0.350420512820513
2329167	-0.358974358974359
2330000	-0.367517948717949
2330833	-0.376061538461538
2331667	-0.384615384615385
2332500	-0.393158974358975
2333333	-0.401702564102564
2334167	-0.410256410256411
2335000	0.5812
2335833	-0.42734358974359
2336667	-0.435897435897436
2337500	-0.444441025641026
2338333	-0.452984615384615
2339167	-0.461538461538462
2340000	0.529917948717949
2340833	0.521374358974359
2341667	0.512820512820513
2342500	0.504276923076923
2343333	0.495733333333334
2344167	0.487179487179487
2345000	1.4786358974359
2345833	0.470092307692307
2346667	0.461538461538462
2347500	0.452994871794871
2348333	0.444451282051282
2349167	0.435897435897436
2350000	1.42735384615385
2350833	1.41881025641026
2351667	1.41025641025641
2352500	1.40171282051282
2353333	1.39316923076923
2354167	1.38461538461539
2355000	1.37607179487179
2355833	1.36752820512821
2356667	1.35897435897436
2357500	1.35043076923077
2358333	1.34188717948718
2359167	1.33333333333333
2360000	1.32478974358974
2360833	0.316246153846154
2361667	0.307692307692307
2362500	0.299148717948718
2363333	0.290605128205129
2364167	1.28205128205128
2365000	0.273507692307692
2365833	0.264964102564102
2366667	0.256410256410256
2367500	-0.752133333333333
2368333	0.239323076923077
2369167	0.230769230769231
2370000	0.222225641025641
2370833	0.213682051282051
2371667	0.205128205128205
2372500	1.19658461538462
2373333	1.18804102564103
2374167	1.17948717948718
2375000	1.17094358974359
2375833	0.1624
2376667	0.153846153846154
2377500	0.145302564102564
2378333	0.136758974358974
2379167	0.128205128205128
2380000	0.119661538461538
2380833	0.111117948717949
2381667	0.102564102564102
2382500	0.0940205128205127
2383333	0.0854769230769232
2384167	0.0769230769230767
2385000	0.0683794871794872
2385833	0.0598358974358977
2386667	0.0512820512820511
2387500	0.0427384615384616
2388333	0.0341948717948721
2389167	1.02564102564103
2390000	0.0170974358974361
2390833	0.00855384615384658
2391667	0
2392500	0
2393333	0
2394167	0
2395000	0
2395833	0
2396667	0
2397500	1
2398333	1
2399167	1
2400000	1
2400833	1
2401667	2
2402500	2
2403333	2
2404167	1
2405000	1
2405833	1
2406667	0
2407500	0
2408333	0
2409167	0
2410000	0
2410833	0
2411667	0
2412500	0
2413333	0
2414167	0
2415000	0
2415833	0
2416667	0
2417500	1
2418333	1
2419167	1
2420000	1
2420833	1
2421667	1
2422500	1
2423333	1
2424167	1
2425000	1
2425833	1
2426667	1
2427500	1
2428333	1
2429167	1
2430000	0
2430833	0
2431667	0
2432500	1
2433333	1
2434167	1
2435000	0
2435833	0
2436667	0
2437500	0
2438333	1
2439167	1
2440000	1
2440833	1
2441667	1
2442500	1
2443333	0
2444167	0
2445000	-1
2445833	0
2446667	0
2447500	0
2448333	0
2449167	1
2450000	1
2450833	1
2451667	1
2452500	1
2453333	1
2454167	1
2455000	1
2455833	1
2456667	1
2457500	1
2458333	0
2459167	0
2460000	-1
2460833	-1
2461667	-1
2462500	-1
2463333	-1
2464167	-1
2465000	0
2465833	0
2466667	0
2467500	0
2468333	0
2469167	0
2470000	0
2470833	0
2471667	0
2472500	0
2473333	0
2474167	0
2475000	-1
2475833	-1
2476667	-1
2477500	-1
2478333	-1
2479167	-1
2480000	-1
2480833	-1
2481667	0
2482500	0
2483333	0
2484167	0
2485000	0
2485833	0
2486667	0
2487500	0
2488333	0
2489167	0
2490000	8.10268379485279E-5
2490833	1.62053675897944E-4
2491667	1.00024317778496
2492500	1.00032420462291
2493333	4.05231460858246E-4
2494167	4.86355569921493E-4
2495000	-0.99943261759213
2495833	-0.999351590754181
2496667	-0.999270466645118
2497500	-0.999189439807169
2498333	8.91587030779739E-4
2499167	9.72711139842986E-4
2500000	0.00105373797779151
2500833	0.00113476481574093
2501667	0.00121588892480329
2502500	0.0012969157627527
2503333	0.00137794260070123
2504167	1.00145906670976
2505000	1.00154009354771
2505833	1.00162112038566
2506667	1.00170224449472
2507500	1.00178327133267
2508333	1.00186429817062
2509167	0.00194542227968597
2510000	0.0020264491176345
2510833	1.00210747595558
2511667	1.00218860006465
2512500	1.00226962690259
2513333	0.00235065374054422
2514167	0.00243177784960658
2515000	0.00251280468755599
2515833	-0.997406168474495
2516667	-0.997325044365432
2517500	-0.997244017527484
2518333	0.00283700931046571
2519167	0.00291813341952807
2520000	0.00299916025747748
2520833	0.00308018709542601
2521667	0.00316131120448926
2522500	0.00324233804243779
2523333	0.0033233648803872
2524167	0.00340448898944956
2525000	0.00348551582739898
2525833	1.00356654266535
2526667	0.00364766677441075
2527500	0.00372869361235928
2528333	0.00380972045030781
2529167	0.00389084455937105
2530000	-0.99602812860268
2530833	-0.995947101764731
2531667	0.00413402234433136
2532500	0.00421504918228077
2533333	0.0042960760202293
2534167	0.00437720012929255
2535000	0.00445822696724107
2535833	0.00453925380519049
2536667	0.00462037791425285
2537500	0.00470140475220227
2538333	0.00478243159015079
2539167	-0.995136444300786
2540000	-0.995055417462837
2540833	0.00502560937511198
2541667	0.00510673348417434
2542500	0.00518776032212376
2543333	0.00526878716007229
2544167	0.00534991126913553
2545000	-0.994569061892916
2545833	-0.994488035054967
2546667	-0.994406910945904
2547500	-0.994325884107955
2548333	-0.994244857270006
2549167	0.00583626683905702
2550000	0.00591729367700555
2550833	0.00599832051495408
2551667	0.00607944462401733
2552500	0.00616047146196586
2553333	0.00624149829991527
2554167	0.00632262240897763
2555000	0.00640364924692705
2555833	0.00648467608487557
2556667	0.00656580019393882
2557500	0.00664682703188735
2558333	1.00672785386984
2559167	1.0068089779789
2560000	1.00689000481685
2560833	1.0069710316548
2561667	1.00705215576386
2562500	1.00713318260181
2563333	0.00721420943975826
2564167	0.00729533354882062
2565000	0.00737636038677003
2565833	0.00745738722471856
2566667	0.00753851133378181
2567500	0.00761953817173033
2568333	0.00770056500967886
2569167	0.00778168911874211
2570000	0.00786271595669064
2570833	0.00794374279464005
2571667	0.0080248669037033
2572500	0.00810589374165183
2573333	0.00818692057960035
2574167	0.0082680446886636
2575000	0.00834907152661213
2575833	0.00843009836456154
2576667	0.0085112224736239
2577500	0.00859224931157332
2578333	0.00867327614952185
2579167	0.00875440025858509
2580000	0.00883542709653362
2580833	0.00891645393448304
2581667	0.0089975780435454
2582500	-0.990921395118505
2583333	-0.990840368280557
2584167	-0.990759244171493
2585000	-1.99067821733354
2585833	-1.9905971904956
2586667	-1.99051606638653
2587500	-0.990435039548584
2588333	-0.990354012710635
2589167	-0.990272888601572
2590000	-0.990191861763623
2590833	0.00988916507432513
2591667	0.00997028918338838
2592500	0.009958762354211
2593333	0.00986826469375401
2594167	0.00977765839264944
2595000	0.00968716073219245
2595833	0.00959666307173634
2596667	0.00950605677063088
2597500	0.00941555911017478
2598333	0.00932506144971779
2599167	0.00923445514861321
2600000	0.00914395748815622
2600833	0.00905345982770012
2601667	0.00896285352659465
2602500	0.00887235586613855
2603333	0.00878185820568245
2604167	0.00869125190457698
2605000	0.00860075424412088
2605833	0.00851025658366389
2606667	1.00841965028256
2607500	1.0083291526221
2608333	1.00823865496165
2609167	1.00814804866054
2610000	1.00805755100008
2610833	1.00796705333963
2611667	1.00787644703852
2612500	0.00778594937806609
2613333	0.00769545171760999
2614167	0.00760484541650452
2615000	0.00751434775604842
2615833	0.00742385009559232
2616667	0.00733324379448685
2617500	0.00724274613403075
2618333	0.00715224847357376
2619167	0.00706164217246918
2620000	0.0069711445120122
2620833	1.00688064685156
2621667	1.00679004055045
2622500	1.00669954288999
2623333	2.00660904522954
2624167	2.00651843892843
2625000	2.00642794126798
2625833	2.00633744360752
2626667	2.00624683730641
2627500	2.00615633964596
2628333	1.0060658419855
2629167	1.0059752356844
2630000	1.00588473802394
2630833	1.00579424036348
2631667	1.00570363406238
2632500	1.00561313640192
2633333	1.00552263874147
2634167	1.00543203244036
2635000	1.0053415347799
2635833	1.00525103711945
2636667	1.00516043081834
2637500	1.00506993315789
2638333	2.00497943549743
2639167	2.00488882919632
2640000	2.00479833153587
2640833	2.00470783387541
2641667	2.00461722757431
2642500	1.00452672991385
2643333	1.00443623225339
2644167	1.00434562595229
2645000	1.00425512829183
2645833	1.00416463063138
2646667	0.00407402433027038
2647500	0.00398352666981427
2648333	1.00389302900936
2649167	1.00380242270825
2650000	1.0037119250478
2650833	1.00362142738734
2651667	1.00353082108623
2652500	1.00344032342578
2653333	1.00334982576532
2654167	1.00325921946422
2655000	0.00316872180376038
2655833	0.00307822414330339
2656667	0.00298761784219792
2657500	0.00289712018174182
2658333	0.00280662252128572
2659167	0.00271601622018025
2660000	0.00262551855972415
2660833	0.00253502089926716
2661667	0.00244441459816258
2662500	0.00235391693770559
2663333	0.00226341927724949
2664167	0.00217281297614402
2665000	-0.997917684684312
2665833	-0.998008182344768
2666667	-0.998098788645874
2667500	-0.998189286306331
2668333	-0.998279783966787
2669167	-0.998370390267892
2670000	-0.998460887928348
2670833	-0.998551385588804
2671667	-0.99864199188991
2672500	-0.998732489550366
2673333	-0.998822987210823
2674167	-0.998913593511928
2675000	-0.999004091172385
2675833	-0.999094588832841
2676667	-0.999185195133946
2677500	-0.999275692794402
2678333	-0.999366190454858
2679167	-0.999456796755964
2680000	-0.999547294416421
2680833	-0.999637792076877
2681667	-0.999728398377982
2682500	1.81103961561568E-4
2683333	9.0606301105467E-5
2684167	0
2685000	-0.0102950316629657
2685833	0.979409936674069
2686667	0.969102546029515
2687500	0.95880751436655
2688333	0.948512482703584
2689167	0.938205092059031
2690000	0.927910060396065
2690833	0.917615028733099
2691667	0.907307638088545
2692500	0.897012606425579
2693333	-0.113282425237386
2694167	-0.12358981588194
2695000	-0.133884847544905
2695833	-0.144179879207871
2696667	-0.154487269852424
2697500	-0.16478230151539
2698333	-0.175077333178356
2699167	-0.185384723822909
2700000	-1.19567975548587
2700833	-1.20597478714884
2701667	-1.21628217779339
2702500	-1.22657720945636
2703333	-0.236872241119325
2704167	-0.247179631763879
2705000	-0.257474663426845
2705833	-0.267769695089811
2706667	0.721922914265636
2707500	0.71162788260267
2708333	0.701332850939704
2709167	0.691025460295151
2710000	0.680730428632185
2710833	0.67043539696922
2711667	0.660128006324666
2712500	0.649832974661701
2713333	0.639537942998735
2714167	-0.370769447645819
2715000	-0.381064479308785
2715833	-0.39135951097175
2716667	-0.401666901616304
2717500	0.58803806672073
2718333	0.577743035057765
2719167	0.567435644413211
2720000	0.557140612750246
2720833	0.54684558108728
2721667	0.536538190442726
2722500	0.52624315877976
2723333	0.515948127116795
2724167	0.505640736472241
2725000	0.495345704809275
2725833	0.48505067314631
2726667	0.474743282501756
2727500	0.464448250838791
2728333	0.454153219175825
2729167	0.443845828531272
2730000	0.433550796868306
2730833	0.42325576520534
2731667	0.412948374560786
2732500	0.402653342897821
2733333	1.39235831123486
2734167	1.3820509205903
2735000	1.37175588892734
2735833	1.36146085726437
2736667	1.35115346661982
2737500	1.34085843495685
2738333	1.33056340329389
2739167	1.32025601264933
2740000	0.309960980986366
2740833	0.2996659493234
2741667	0.289358558678847
2742500	0.279063527015881
2743333	0.268768495352916
2744167	0.258461104708362
2745000	-0.751833926954604
2745833	-0.76212895861757
2746667	0.227563650737877
2747500	0.217268619074911
2748333	0.206973587411945
2749167	0.196666196767392
2750000	0.186371165104426
2750833	0.176076133441461
2751667	-0.834231257203093
2752500	-0.844526288866058
2753333	-0.854821320529024
2754167	-0.865128711173578
2755000	-0.875423742836544
2755833	0.114281225500491
2756667	0.103973834855937
2757500	0.0936788031929714
2758333	0.0833837715300056
2759167	0.0730763808854524
2760000	0.0627813492224867
2760833	0.0524863175595209
2761667	0.0421789269149668
2762500	0.031883895252002
2763333	0.0215888635890362
2764167	-0.988718527055518
2765000	-0.999013558718484
2765833	-1.00930859038145
2766667	-0.0196159810260026
2767500	-0.0299110126889683
2768333	-0.0402060443519332
2769167	-0.0505134349964873
2770000	-1.06080846665945
2770833	-0.0711034983224188
2771667	-0.0814108889669729
2772500	-0.0917059206299378
2773333	-0.102000952292904
2774167	-0.112308342937458
2775000	0.877396625399577
2775833	0.867101593736612
2776667	0.856794203092058
2777500	-0.153500828570908
2778333	-0.163795860233874
2779167	-0.174103250878427
2780000	-1.18439828254139
2780833	-1.19469331420436
2781667	-1.20500070484891
2782500	-1.21529573651188
2783333	-1.22559076817484
2784167	-1.2358981588194
2785000	-0.246193190482362
2785833	-1.25648822214533
2786667	-1.26679561278988
2787500	-1.27709064445285
2788333	-1.28738567611581
2789167	-1.29769306676037
2790000	-1.30798809842333
2790833	-0.318283130086298
2791667	-0.328590520730852
2792500	-0.338885552393817
2793333	-0.349180584056783
2794167	-0.359487974701337
2795000	-0.369783006364303
2795833	-0.380078038027268
2796667	-0.390385428671822
2797500	-0.400680460334788
2798333	-0.410975491997753
2799167	-0.421282882642307
2800000	0.568422085694728
2800833	0.558127054031762
2801667	0.547819663387209
2802500	0.537524631724243
2803333	0.527229600061277
2804167	0.516922209416723
2805000	0.506627177753758
2805833	-0.503667853909208
2806667	-0.513975244553762
2807500	-0.524270276216727
2808333	-0.534565307879692
2809167	-0.544872698524246
2810000	0.444832269812788
2810833	0.434537238149822
2811667	0.424229847505269
2812500	0.413934815842303
2813333	0.403639784179338
2814167	0.393332393534783
2815000	-0.616962638128182
2815833	-0.627257669791147
2816667	-0.637565060435701
2817500	-0.647860092098666
2818333	-0.658155123761633
2819167	-0.668462514406186
2820000	-0.678757546069152
2820833	-0.689052577732117
2821667	-0.699359968376671
2822500	0.290344999960364
2823333	0.280049968297398
2824167	0.269742577652844
2825000	0.259447545989879
2825833	0.249152514326913
2826667	0.238845123682359
2827500	0.228550092019393
2828333	0.218255060356428
2829167	-0.792052330288126
2830000	-0.802347361951091
2830833	-0.812642393614057
2831667	-1.82294978425861
2832500	-1.83324481592158
2833333	-0.843539847584542
2834167	-0.853847238229095
2835000	0.135857730107938
2835833	0.125562698444973
2836667	0.115255307800419
2837500	0.104960276137454
2838333	0.0946652444744878
2839167	0.0843578538299345
2840000	0.0740628221669688
2840833	0.0637677905040031
2841667	0.0534603998594498
2842500	0.0431653681964841
2843333	0.0328703365335183
2844167	0.0225629458889642
2845000	0.0122679142259994
2845833	0.00197288256303363
2846667	-0.00833450808151959
2847500	-0.0186295397444862
2848333	-0.0289245714074511
2849167	-0.0392319620520052
2850000	-0.0495269937149709
2850833	-0.0598220253779367
2851667	0.92987058397751
2852500	0.919575552314544
2853333	0.909280520651579
2854167	0.898973130007025
2855000	0.888678098344059
2855833	-0.121616933318906
2856667	-0.13192432396346
2857500	-0.142219355626425
2858333	-0.152514387289392
2859167	-0.162821777933945
2860000	-0.173116809596911
2860833	-0.183411841259876
2861667	-0.19371923190443
2862500	0.795985736432605
2863333	0.785690704769639
2864167	0.775383314125085
2865000	0.76508828246212
2865833	0.754793250799154
2866667	0.7444858601546
2867500	-0.265809171508366
2868333	-0.276104203171331
2869167	-0.286411593815885
2870000	-0.29670662547885
2870833	-0.307001657141816
2871667	-0.317309047786369
2872500	-0.327604079449335
2873333	-0.337899111112301
2874167	-0.348206501756854
2875000	-0.358501533419821
2875833	-0.368796565082786
2876667	-0.37910395572734
2877500	-0.389398987390305
2878333	-0.399694019053271
2879167	-0.410001409697824
2880000	-0.42029644136079
2880833	-0.430591473023755
2881667	-0.440898863668309
2882500	-0.451193895331275
2883333	0.538511073005759
2884167	0.528203682361205
2885000	0.51790865069824
2885833	1.50761361903527
2886667	1.49730622839072
2887500	0.487011196727755
2888333	0.47671616506479
2889167	0.466408774420236
2890000	0.456113742757271
2890833	-0.554181288905696
2891667	-0.56448867955025
2892500	-0.574783711213215
2893333	-0.58507874287618
2894167	-0.595386133520734
2895000	-0.6056811651837
2895833	-0.615976196846665
2896667	-0.626283587491219
2897500	-0.636578619154184
2898333	-0.64687365081715
2899167	-0.657181041461704
2900000	-0.66747607312467
2900833	-0.677771104787634
2901667	0.311921504567811
2902500	0.301626472904845
2903333	0.29133144124188
2904167	0.281024050597326
2905000	0.270729018934361
2905833	0.271796528154324
2906667	0.287102545076593
2907500	0.302390209460586
2908333	0.317677873844579
2909167	0.332983890766847
2910000	0.34827155515084
2910833	-0.636440780465168
2911667	-0.621134763542898
2912500	-0.605847099158906
2913333	-0.590559434774913
2914167	-0.575253417852644
2915000	-0.559965753468651
2915833	-0.544678089084658
2916667	-0.529372072162389
2917500	0.485915592221604
2918333	0.501203256605596
2919167	0.516509273527865
2920000	0.531796937911857
2920833	0.54708460229585
2921667	0.562390619218119
2922500	0.577678283602112
2923333	0.592965947986105
2924167	-0.391728035091626
2925000	-0.376440370707633
2925833	-0.36115270632364
2926667	0.654153310598629
2927500	0.669440974982621
2928333	-0.315271360633386
2929167	-0.299965343711118
2930000	-0.284677679327125
2930833	0.730609985056868
2931667	0.745916001979137
2932500	0.76120366636313
2933333	0.776491330747123
2934167	0.791797347669392
2935000	0.807085012053385
2935833	-0.177627323562623
2936667	0.837678693359647
2937500	0.852966357743639
2938333	0.868254022127632
2939167	0.8835600390499
2940000	1.89884770343389
2940833	1.91413536781789
2941667	1.92944138474016
2942500	0.944729049124148
2943333	0.960016713508141
2944167	0.97532273043041
2945000	0.990610394814402
2945833	1.00589805919839
2946667	1.02120407612066
2947500	0.0364917405046565
2948333	0.0517794048886495
2949167	0.0670854218109183
2950000	0.0823730861949112
2950833	0.0976607505789033
2951667	0.112966767501173
2952500	0.128254431885166
2953333	1.14354209626916
2954167	1.15884811319143
2955000	1.17413577757542
2955833	1.18942344195941
2956667	1.20472945888168
2957500	1.22001712326567
2958333	1.23530478764967
2959167	1.25061080457194
2960000	1.26589846895593
2960833	0.281186133339922
2961667	0.296492150262191
2962500	0.311779814646183
2963333	0.327067479030176
2964167	0.342373495952446
2965000	0.357661160336438
2965833	0.372948824720431
2966667	1.3882548416427
2967500	1.40354250602669
2968333	1.41883017041069
2969167	1.43413618733295
2970000	0.449423851716947
2970833	0.464711516100939
2971667	1.48001753302321
2972500	1.4953051974072
2973333	0.510592861791194
2974167	0.525898878713463
2975000	0.541186543097456
2975833	0.556474207481449
2976667	0.571780224403717
2977500	0.587067888787709
2978333	0.602355553171703
2979167	0.617661570093972
2980000	0.632949234477964
2980833	0.648236898861957
2981667	-0.336457084215774
2982500	-0.321169419831781
2983333	-0.305881755447788
2984167	-0.290575738525519
2985000	-0.275288074141526
2985833	-0.260000409757534
2986667	-0.244694392835265
2987500	-0.229406728451273
2988333	-0.21411906406728
2989167	0.801186952854989
2990000	0.816474617238982
2990833	0.831762281622975
2991667	0.847068298545244
2992500	-0.137644037070763
2993333	-0.12235637268677
2994167	-0.107050355764502
2995000	-0.0917626913805085
2995833	-0.0764750269965155
2996667	-0.0611690100742468
2997500	-0.0458813456902547
2998333	0.969406318693738
2999167	-0.015287664383993
3000000	0
