R.Time (min)	Intensity
0	5.17425394174997
833	5.14713441832968
1667	3.11998233845871
2500	3.09286281503843
3333	3.06574329161815
4167	3.03859121174718
5000	2.01147168832689
5833	0.984352164906608
6667	0.957200085035639
7500	0.930080561615355
8333	0.902961038195071
9167	-0.124191041675898
10000	0.848689434903817
10833	0.821569911483533
11667	0.794417831612564
12500	1.76729830819228
13333	1.740178784772
14167	1.71302670490103
15000	1.68590718148074
15833	1.65878765806046
16667	1.63163557818949
17500	1.6045160547692
18333	1.57739653134892
19167	1.55024445147795
20000	1.52312492805767
20833	1.49600540463738
21667	1.46885332476641
22500	0.441733801346129
23333	0.414614277925845
24167	0.387462198054876
25000	0.360342674634591
25833	0.333223151214307
26667	0.306071071343338
27500	1.27895154792305
28333	1.25183202450277
29167	1.2246799446318
30000	1.19756042121152
30833	1.17044089779123
31667	2.14328881792026
32500	2.11616929449998
33333	2.08904977107969
34167	3.06189769120873
35000	3.03477816778844
35833	3.00765864436816
36667	2.98050656449719
37500	3.9533870410769
38333	3.92626751765662
39167	2.89911543778565
40000	2.87199591436537
40833	1.84487639094508
41667	0.817724311074112
42500	0.790604787653828
43333	-0.236514735766456
44167	-0.263666815637425
45000	-0.29078633905771
45833	-0.317905862477994
46667	-0.345057942348963
47500	-0.372177465769247
48333	-0.399296989189532
49167	-0.426449069060501
50000	-0.453568592480785
50833	-0.480688115901069
51667	-0.507840195772038
52500	-0.534959719192323
53333	-0.562079242612607
54167	-0.589231322483576
55000	-0.61635084590386
55833	-0.643470369324145
56667	-0.670622449195113
57500	-0.697741972615398
58333	-0.724861496035682
59167	-0.752013575906651
60000	-0.779133099326936
60833	-0.80625262274722
61667	0.166595297381811
62500	0.139475773961527
63333	0.112356250541243
64167	0.0852041706702735
65000	0.0580846472499892
65833	0.0309651238297048
66667	0.00381304395873605
67500	-0.0233064794615483
68333	-0.0504260028818326
69167	-0.0775780827528016
70000	-0.104697606173086
70833	-0.131817129593371
71667	-0.15896920946434
72500	-0.186088732884623
73333	-0.213208256304908
74167	-0.240360336175877
75000	-0.267479859596161
75833	-0.294599383016446
76667	-0.321751462887415
77500	-0.348870986307699
78333	-0.375990509727983
79167	-0.403142589598952
80000	-0.430262113019237
80833	-0.457381636439521
81667	-0.48453371631049
82500	-0.511653239730774
83333	-0.538772763151059
84167	-0.565924843022028
85000	-0.593044366442312
85833	0.379836110137404
86667	0.352684030266435
87500	0.32556450684615
88333	0.298444983425866
89167	-0.728707096445103
90000	-0.755826619865387
90833	0.217053856714328
91667	0.18990177684336
92500	0.162782253423075
93333	0.135662730002791
94167	0.108510650131822
95000	0.0813911267115377
95833	0.0542716032912534
96667	0.0271195234202843
97500	0
98333	-0.00854358974358974
99167	-0.0170974358974359
100000	-0.0256410256410256
100833	-0.0341846153846154
101667	-0.0427384615384615
102500	-0.0512820512820513
103333	-0.059825641025641
104167	-0.0683794871794872
105000	-1.07692307692308
105833	-1.08546666666667
106667	-1.09402051282051
107500	-0.102564102564103
108333	-0.111107692307692
109167	-0.119661538461538
110000	-0.128205128205128
110833	-1.13674871794872
111667	-1.14530256410256
112500	-1.15384615384615
113333	-1.16238974358974
114167	-0.17094358974359
115000	-0.179487179487179
115833	-0.188030769230769
116667	-0.196584615384615
117500	-1.20512820512821
118333	-1.21367179487179
119167	-0.222225641025641
120000	-0.230769230769231
120833	-0.239312820512821
121667	-0.247866666666667
122500	-0.256410256410256
123333	-0.264953846153846
124167	-0.273507692307692
125000	-0.282051282051282
125833	-0.290594871794872
126667	-0.299148717948718
127500	-0.307692307692308
128333	-1.3162358974359
129167	-1.32478974358974
130000	-1.33333333333333
130833	-0.341876923076923
131667	-0.350430769230769
132500	-0.358974358974359
133333	-0.367517948717949
134167	-0.376071794871795
135000	-0.384615384615385
135833	0.606841025641026
136667	0.598287179487179
137500	0.58974358974359
138333	-0.4188
139167	-0.427353846153846
140000	-0.435897435897436
140833	-0.444441025641026
141667	-0.452994871794872
142500	-0.461538461538462
143333	-0.470082051282051
144167	-0.478635897435897
145000	-1.48717948717949
145833	-1.49572307692308
146667	-1.50427692307692
147500	-1.51282051282051
148333	-1.5213641025641
149167	-1.52991794871795
150000	-1.53846153846154
150833	-1.54700512820513
151667	-0.555558974358974
152500	-0.564102564102564
153333	-0.572646153846154
154167	-0.5812
155000	-0.58974358974359
155833	-0.598287179487179
156667	-0.606841025641026
157500	-0.615384615384615
158333	-0.623928205128205
159167	-0.632482051282051
160000	-0.641025641025641
160833	-0.649569230769231
161667	-0.658123076923077
162500	-0.666666666666667
163333	-0.675210256410256
164167	-0.683764102564103
165000	-0.692307692307692
165833	-0.700851282051282
166667	-0.709405128205128
167500	-0.717948717948718
168333	-0.726492307692308
169167	-0.735046153846154
170000	-0.743589743589744
170833	-0.752133333333333
171667	-0.760687179487179
172500	-0.769230769230769
173333	-0.777774358974359
174167	-0.786328205128205
175000	-0.794871794871795
175833	-1.80341538461538
176667	-0.811969230769231
177500	-0.82051282051282
178333	-0.82905641025641
179167	-0.837610256410256
180000	-0.846153846153846
180833	-0.854697435897436
181667	-0.863251282051282
182500	0.128205128205128
183333	0.119661538461538
184167	0.111107692307692
185000	-0.897435897435897
185833	-0.905979487179487
186667	-0.914533333333333
187500	-0.923076923076923
188333	-0.931620512820513
189167	-0.940174358974359
190000	0.0512820512820513
190833	0.0427384615384615
191667	-0.965815384615385
192500	0.0256410256410257
193333	0.0170974358974358
194167	0.00854358974358971
195000	0
195833	0
196667	0
197500	0
198333	0
199167	0
200000	0
200833	0
201667	0
202500	0
203333	0
204167	0
205000	0
205833	0
206667	0
207500	0
208333	0
209167	0
210000	0
210833	0
211667	0
212500	0
213333	0
214167	0
215000	0
215833	0
216667	0
217500	0
218333	1
219167	1
220000	1
220833	1
221667	1
222500	1
223333	1
224167	1
225000	1
225833	1
226667	1
227500	1
228333	0
229167	0
230000	0
230833	0
231667	0
232500	0
233333	0
234167	1
235000	1
235833	1
236667	1
237500	1
238333	1
239167	1
240000	1
240833	1
241667	0
242500	0
243333	0
244167	0
245000	0
245833	0
246667	0
247500	0
248333	0
249167	0
250000	0
250833	0
251667	0
252500	-1
253333	-1
254167	-1
255000	-1
255833	-1
256667	-1
257500	-1
258333	-1
259167	-1
260000	0
260833	0
261667	-1
262500	-1
263333	-1
264167	-1
265000	-1
265833	-1
266667	-1
267500	-1
268333	-1
269167	-1
270000	-1
270833	-1
271667	-1
272500	-1
273333	-2
274167	-2
275000	-2
275833	-2
276667	-1
277500	-1
278333	-1
279167	-1
280000	-1
280833	-1
281667	-1
282500	-1
283333	-1
284167	-1
285000	-1
285833	-1
286667	-1
287500	-1
288333	-1
289167	-1
290000	-1
290833	0
291667	0
292500	0
293333	-0.0170871794871794
294167	-0.0341948717948717
295000	-0.0512820512820513
295833	-0.0683692307692307
296667	-0.085476923076923
297500	-0.102564102564103
298333	-0.119651282051282
299167	-0.136758974358974
300000	-1.15384615384615
300833	-1.17093333333333
301667	-1.18804102564103
302500	-1.20512820512821
303333	-1.22221538461538
304167	-1.23932307692308
305000	-1.25641025641026
305833	-1.27349743589744
306667	-0.290605128205128
307500	-0.307692307692308
308333	0.675220512820513
309167	0.65811282051282
310000	-0.358974358974359
310833	-0.376061538461538
311667	-0.393169230769231
312500	-0.41025641025641
313333	-1.42734358974359
314167	-1.44445128205128
315000	-1.46153846153846
315833	-1.47862564102564
316667	-1.49573333333333
317500	-0.512820512820513
318333	-0.529907692307692
319167	-0.547015384615384
320000	-0.564102564102564
320833	-0.581189743589744
321667	-0.598297435897436
322500	-0.615384615384615
323333	-0.632471794871795
324167	-0.649579487179487
325000	-0.666666666666667
325833	-0.683753846153846
326667	-0.700861538461538
327500	-0.717948717948718
328333	-0.735035897435897
329167	-0.75214358974359
330000	-0.769230769230769
330833	-0.786317948717949
331667	-0.803425641025641
332500	-0.82051282051282
333333	-0.8376
334167	-0.854707692307692
335000	-0.871794871794872
335833	0.111117948717949
336667	0.0940102564102565
337500	0.0769230769230769
338333	0.0598358974358975
339167	0.042728205128205
340000	0.0256410256410256
340833	0.00855384615384613
341667	-0.00855384615384613
342500	-0.0256410256410256
343333	-1.04272820512821
344167	-1.0598358974359
345000	-1.07692307692308
345833	-1.09401025641026
346667	-1.11111794871795
347500	-0.128205128205128
348333	-0.145292307692308
349167	-0.1624
350000	-0.17948717948718
350833	-1.19657435897436
351667	-1.21368205128205
352500	-1.23076923076923
353333	-1.24785641025641
354167	-1.2649641025641
355000	-0.282051282051282
355833	-0.299138461538462
356667	-0.316246153846154
357500	-0.333333333333333
358333	-0.350420512820513
359167	-0.367528205128205
360000	-0.384615384615385
360833	-0.401702564102564
361667	-0.418810256410256
362500	-0.435897435897436
363333	-0.452984615384615
364167	-0.470092307692307
365000	-0.487179487179487
365833	-0.504266666666667
366667	-0.521374358974359
367500	-0.538461538461538
368333	-0.555548717948718
369167	-0.57265641025641
370000	-0.589743589743589
370833	-0.606830769230769
371667	-0.623938461538462
372500	-0.641025641025641
373333	-0.65811282051282
374167	-0.675220512820513
375000	-0.692307692307693
375833	-0.709394871794871
376667	0.273497435897436
377500	0.256410256410256
378333	0.239323076923077
379167	0.222215384615385
380000	0.205128205128205
380833	0.188041025641025
381667	0.170933333333333
382500	0.153846153846154
383333	0.136758974358974
384167	0.119651282051282
385000	0.102564102564103
385833	0.0854769230769232
386667	0.068369230769231
387500	0.0512820512820511
388333	0.0341948717948717
389167	0.0170871794871794
390000	0
390833	-0.0170871794871794
391667	-0.0341948717948717
392500	-0.0512820512820511
393333	-0.068369230769231
394167	-0.0854769230769232
395000	-0.102564102564103
395833	-0.119651282051282
396667	-0.136758974358974
397500	-0.153846153846154
398333	-0.170933333333333
399167	-1.18804102564103
400000	-1.20512820512821
400833	-0.222215384615385
401667	-0.239323076923077
402500	-1.25641025641026
403333	-1.27349743589744
404167	-0.290605128205128
405000	-0.307692307692307
405833	-0.324779487179487
406667	-0.34188717948718
407500	-0.358974358974359
408333	-0.376061538461538
409167	-0.393169230769231
410000	-0.41025641025641
410833	-1.42734358974359
411667	-1.44445128205128
412500	-1.46153846153846
413333	-1.47862564102564
414167	-0.495733333333333
415000	-0.512820512820513
415833	-0.529907692307692
416667	-0.547015384615384
417500	-0.564102564102564
418333	-0.581189743589744
419167	-0.598297435897436
420000	-0.615384615384615
420833	-0.632471794871795
421667	-0.649579487179487
422500	-0.666666666666667
423333	-0.683753846153846
424167	-0.700861538461538
425000	-0.717948717948718
425833	-0.735035897435897
426667	-0.75214358974359
427500	-0.769230769230769
428333	-0.786317948717949
429167	-0.803425641025641
430000	-0.82051282051282
430833	-0.8376
431667	-0.854707692307692
432500	-0.871794871794872
433333	-0.888882051282051
434167	-0.905989743589743
435000	-0.923076923076923
435833	-0.940164102564102
436667	-0.957271794871795
437500	-0.974358974358974
438333	-0.991446153846154
439167	-1.00855384615385
440000	-1.02564102564103
440833	-1.04272820512821
441667	-1.0598358974359
442500	-1.07692307692308
443333	-1.09401025641026
444167	-1.11111794871795
445000	-1.12820512820513
445833	-1.14529230769231
446667	-0.1624
447500	-0.17948717948718
448333	-0.196574358974359
449167	-0.213682051282051
450000	-0.230769230769231
450833	-0.247856410256411
451667	-0.264964102564102
452500	-0.282051282051282
453333	-0.299138461538462
454167	-0.316246153846154
455000	-0.333333333333333
455833	-0.350420512820513
456667	-0.367528205128205
457500	-0.384615384615385
458333	-0.401702564102564
459167	-0.418810256410256
460000	-1.43589743589744
460833	-1.45298461538462
461667	-1.47009230769231
462500	-1.48717948717949
463333	-1.50426666666667
464167	-1.52137435897436
465000	-1.53846153846154
465833	-1.55554871794872
466667	-0.57265641025641
467500	-0.589743589743589
468333	-0.606830769230769
469167	-0.623938461538462
470000	-0.641025641025641
470833	-0.65811282051282
471667	-0.675220512820513
472500	-0.692307692307693
473333	-0.709394871794871
474167	-0.726502564102564
475000	-0.743589743589744
475833	0.239323076923077
476667	0.222215384615385
477500	0.205128205128205
478333	0.188041025641025
479167	-0.829066666666667
480000	-0.846153846153847
480833	-0.863241025641026
481667	-0.880348717948718
482500	-0.897435897435898
483333	-0.914523076923077
484167	0.068369230769231
485000	0.0512820512820511
485833	0.0341948717948721
486667	0.017087179487179
487500	0
488333	0.0170871794871799
489167	0.0341948717948721
490000	0.0512820512820511
490833	0.068369230769231
491667	0.0854769230769232
492500	0.102564102564102
493333	0.119651282051282
494167	0.136758974358974
495000	0.153846153846154
495833	0.170933333333333
496667	0.188041025641025
497500	0.205128205128205
498333	0.222215384615384
499167	0.239323076923077
500000	0.256410256410256
500833	0.273497435897436
501667	-0.709394871794871
502500	-0.692307692307693
503333	-0.675220512820513
504167	-0.65811282051282
505000	-0.641025641025641
505833	-0.623938461538462
506667	-0.606830769230769
507500	-0.589743589743589
508333	-0.57265641025641
509167	-0.555548717948718
510000	-0.538461538461538
510833	-0.521374358974359
511667	-0.504266666666666
512500	-0.487179487179487
513333	-1.47009230769231
514167	-1.45298461538462
515000	-1.43589743589744
515833	-1.41881025641026
516667	-1.40170256410256
517500	-0.384615384615385
518333	-0.367528205128205
519167	-0.350420512820513
520000	-0.333333333333333
520833	0.683753846153846
521667	0.700861538461538
522500	-0.282051282051282
523333	0.735035897435898
524167	-0.247856410256411
525000	-0.230769230769231
525833	-0.213682051282051
526667	-0.196574358974359
527500	-0.17948717948718
528333	-0.1624
529167	0.854707692307692
530000	0.871794871794872
530833	0.888882051282051
531667	0.905989743589743
532500	0.923076923076923
533333	0.940164102564102
534167	-0.0427282051282054
535000	-0.0256410256410256
535833	-0.00855384615384658
536667	0.00855384615384613
537500	0.0256410256410256
538333	1.04272820512821
539167	1.0598358974359
540000	1.07692307692308
540833	1.09401025641026
541667	0.111117948717949
542500	0.128205128205128
543333	0.145292307692308
544167	0.1624
545000	0.17948717948718
545833	1.19657435897436
546667	1.21368205128205
547500	1.23076923076923
548333	1.24785641025641
549167	1.2649641025641
550000	0.282051282051282
550833	0.299138461538462
551667	0.316246153846154
552500	0.333333333333333
553333	0.350420512820513
554167	0.367528205128205
555000	0.384615384615385
555833	0.401702564102564
556667	0.418810256410256
557500	0.435897435897436
558333	0.452984615384615
559167	1.47009230769231
560000	1.48717948717949
560833	1.50426666666667
561667	1.52137435897436
562500	1.53846153846154
563333	1.55554871794872
564167	0.57265641025641
565000	0.589743589743589
565833	0.606830769230769
566667	0.623938461538462
567500	0.641025641025641
568333	0.65811282051282
569167	1.67522051282051
570000	1.69230769230769
570833	1.70939487179487
571667	1.72650256410256
572500	0.743589743589744
573333	0.760676923076923
574167	0.777784615384615
575000	0.794871794871795
575833	0.811958974358975
576667	0.829066666666667
577500	0.846153846153846
578333	-0.136758974358974
579167	-0.119651282051282
580000	-0.102564102564103
580833	-0.0854769230769232
581667	-0.068369230769231
582500	-0.0512820512820511
583333	-0.0341948717948717
584167	-0.0170871794871794
585000	0
585833	0.0114240261120595
586667	0.0228617665411806
587500	0.0342857926532405
588333	0.0457098187653
589167	0.057147559194421
590000	0.0685715853064806
590833	1.07999561141854
591667	1.09143335184766
592500	1.10285737795972
593333	1.11428140407178
594167	0.125719144500902
595000	0.137143170612962
595833	0.148567196725021
596667	1.16000493715414
597500	1.1714289632662
598333	1.18285298937826
599167	1.19429072980738
600000	1.20571475591944
600833	0.217138782031502
601667	0.228576522460623
602500	0.240000548572683
603333	0.251424574684742
604167	-0.737137684886137
605000	-0.725713658774077
605833	-0.714289632662017
606667	-0.702851892232896
607500	-0.691427866120837
608333	-0.680003840008777
609167	-0.668566099579656
610000	-0.657142073467596
610833	-0.645718047355537
611667	-1.63428030692642
612500	-1.62285628081436
613333	-2.6114322547023
614167	-4.59999451427318
615000	-6.58857048816112
615833	-9.57714646204906
616667	-13.5657087216199
617500	-19.5542846955079
618333	-29.5428606693958
619167	-43.5314229289667
620000	-65.5199989028546
620833	-97.5085748767426
621667	-144.497137136313
622500	-212.485713110201
623333	-309.474289084089
624167	-444.46285134366
625000	-630.451427317548
625833	-878.440003291436
626667	-1206.42856555101
627500	-1626.4171415249
628333	-2153.40571749878
629167	-2794.39427975835
630000	-3553.38285573224
630833	-4424.37143170613
631667	-5395.3599939657
632500	-6440.34856993959
633333	-7528.33714591348
634167	-8622.32570817305
635000	-9678.31428414693
635833	-10654.3028601208
636667	-11512.2914223804
637500	-12218.2799983543
638333	-12747.2685743282
639167	-13085.2571365877
640000	-13224.2457125616
640833	-13170.2342885355
641667	-12933.2228507951
642500	-12533.211426769
643333	-11993.2000027429
644167	-11339.1885650024
645000	-10599.1771409763
645833	-9800.16571695021
646667	-8969.15427920978
647500	-8128.14285518367
648333	-7299.13143115756
649167	-6497.11999341713
650000	-5736.10856939102
650833	-5025.0971453649
651667	-4370.08570762447
652500	-3774.07428359836
653333	-3240.06285957225
654167	-2764.05142183182
655000	-2346.03999780571
655833	-1982.0285737796
656667	-1667.01713603917
657500	-1398.00571201306
658333	-1167.99428798694
659167	-973.982850246515
660000	-809.971426220403
660833	-672.960002194291
661667	-558.948564453862
662500	-463.93714042775
663333	-385.925716401637
664167	-320.914278661208
665000	-266.902854635096
665833	-222.891430608984
666667	-186.879992868555
667500	-156.868568842443
668333	-132.857144816331
669167	-111.845707075902
670000	-95.8342830497898
670833	-81.8228590236778
671667	-70.8114212832486
672500	-60.7999972571366
673333	-52.7885732310245
674167	-46.7771354905954
675000	-40.7657114644833
675833	-35.7542874383713
676667	-31.7428496979422
677500	-28.7314256718301
678333	-25.720001645718
679167	-23.7085639052889
680000	-21.6971398791769
680833	-19.6857158530648
681667	-17.6742781126357
682500	-16.6628540865236
683333	-15.6514300604116
684167	-14.6399923199824
685000	-12.6285682938704
685833	-11.6171442677583
686667	-10.6057065273292
687500	-10.5942825012171
688333	-9.58285847510509
689167	-8.57142073467596
690000	-7.55999670856391
690833	-7.54857268245185
691667	-6.53713494202272
692500	-6.52571091591066
693333	-6.5142868897986
694167	-6.50284914936948
695000	-5.49142512325742
695833	-5.48000109714537
696667	-4.46856335671624
697500	-4.45713933060418
698333	-4.44571530449212
699167	-3.434277564063
700000	-3.42285353795094
700833	-4.41142951183888
701667	-3.39999177140976
702500	-3.3885677452977
703333	-3.37714371918564
704167	-3.36570597875652
705000	-3.35428195264446
705833	-2.3428579265324
706667	-1.33142018610328
707500	-1.31999615999122
708333	-1.30857213387916
709167	-1.29713439345004
710000	-1.28571036733798
710833	-1.27428634122592
711667	-1.2628486007968
712500	-0.251424574684742
713333	-0.240000548572682
714167	-1.22856280814356
715000	-1.2171387820315
715833	-1.20571475591944
716667	-1.19427701549032
717500	-1.18285298937826
718333	-1.1714289632662
719167	-1.15999122283708
720000	-1.14856719672502
720833	-1.13714317061296
721667	-0.125705430183841
722500	-0.114281404071781
723333	-0.102857377959721
724167	-1.0914196375306
725000	-1.07999561141854
725833	-1.06857158530648
726667	-1.05713384487736
727500	-1.0457098187653
728333	-1.03428579265324
729167	-1.02284805222412
730000	-1.01142402611206
730833	0
731667	-0.0342153846153845
732500	-0.0683897435897436
733333	-0.102564102564103
734167	-0.136779487179487
735000	-0.170953846153846
735833	0.794871794871795
736667	0.76065641025641
737500	0.726482051282051
738333	0.692307692307692
739167	0.658092307692308
740000	0.623917948717949
740833	0.58974358974359
741667	0.555528205128205
742500	0.521353846153846
743333	0.487179487179487
744167	0.452964102564103
745000	0.418789743589744
745833	0.384615384615385
746667	0.3504
747500	0.316225641025641
748333	1.28205128205128
749167	0.247835897435897
750000	0.213661538461539
750833	0.17948717948718
751667	0.145271794871795
752500	0.111097435897436
753333	0.0769230769230769
754167	0.0427076923076923
755000	0.00853333333333328
755833	-0.0256410256410256
756667	-0.0598564102564101
757500	-0.0940307692307689
758333	-0.128205128205128
759167	-0.162420512820513
760000	-0.196594871794872
760833	0.769230769230769
761667	0.735015384615385
762500	0.700841025641026
763333	0.666666666666667
764167	-0.367548717948718
765000	-0.401723076923077
765833	-0.435897435897436
766667	0.529887179487179
767500	0.495712820512821
768333	0.461538461538462
769167	0.427323076923077
770000	0.393148717948718
770833	0.358974358974359
771667	0.324758974358974
772500	0.290584615384615
773333	0.256410256410256
774167	0.222194871794872
775000	0.188020512820513
775833	0.153846153846154
776667	0.119630769230769
777500	0.0854564102564099
778333	0.0512820512820511
779167	0.0170666666666666
780000	0.982892307692308
780833	0.948717948717949
781667	0.914502564102564
782500	0.880328205128205
783333	0.846153846153846
784167	0.811938461538462
785000	0.777764102564102
785833	0.743589743589744
786667	0.709374358974359
787500	0.6752
788333	0.641025641025641
789167	0.606810256410256
790000	0.572635897435898
790833	0.538461538461538
791667	0.504246153846154
792500	0.470071794871795
793333	0.435897435897436
794167	0.401682051282051
795000	0.367507692307692
795833	-0.666666666666667
796667	0.299117948717949
797500	0.26494358974359
798333	0.230769230769231
799167	0.196553846153846
800000	-0.837620512820513
800833	-0.871794871794872
801667	-0.906010256410256
802500	-0.940184615384615
803333	-0.974358974358974
804167	-1.00857435897436
805000	-1.04274871794872
805833	-1.07692307692308
806667	-0.111138461538461
807500	-0.145312820512821
808333	-0.179487179487179
809167	-0.213702564102564
810000	-0.247876923076923
810833	-0.282051282051282
811667	-0.316266666666666
812500	-0.350441025641025
813333	-0.384615384615385
814167	-0.41883076923077
815000	-0.453005128205128
815833	-0.487179487179487
816667	-0.521394871794872
817500	-0.555569230769231
818333	-0.589743589743589
819167	-0.623958974358974
820000	-0.658133333333334
820833	0.307692307692307
821667	-0.726523076923077
822500	-0.760697435897436
823333	-0.794871794871795
824167	0.17091282051282
825000	0.136738461538462
825833	0.102564102564102
826667	0.0683487179487177
827500	0.0341743589743588
828333	0
829167	0.974338461538461
830000	0.948707692307693
830833	0.923076923076923
831667	1.89741538461538
832500	1.87178461538462
833333	0.846153846153846
834167	0.820492307692308
835000	0.794861538461539
835833	-0.230769230769231
836667	-0.25643076923077
837500	-0.282061538461538
838333	-0.307692307692307
839167	-1.33335384615385
840000	-0.358984615384616
840833	-0.384615384615385
841667	-0.410276923076923
842500	-0.435907692307692
843333	-0.461538461538462
844167	-0.4872
845000	-0.512830769230769
845833	-0.538461538461538
846667	-0.564123076923077
847500	-0.589753846153847
848333	-0.615384615384615
849167	0.358953846153846
850000	0.333323076923077
850833	-0.692307692307693
851667	-0.71796923076923
852500	0.2564
853333	0.230769230769231
854167	0.205107692307692
855000	0.179476923076923
855833	-0.846153846153846
856667	-0.871815384615385
857500	0.102553846153846
858333	0.0769230769230767
859167	0.0512615384615387
860000	0.0256307692307693
860833	0
861667	-1.02566153846154
862500	-0.0512923076923073
863333	-0.0769230769230767
864167	-0.102584615384616
865000	-0.128215384615385
865833	-0.153846153846153
866667	-0.179507692307692
867500	-0.205138461538461
868333	-0.230769230769231
869167	-1.25643076923077
870000	-1.28206153846154
870833	-1.30769230769231
871667	-1.33335384615385
872500	-1.35898461538462
873333	-1.38461538461539
874167	-0.410276923076923
875000	-0.435907692307692
875833	-0.461538461538462
876667	-0.4872
877500	-0.512830769230769
878333	-0.538461538461538
879167	-0.564123076923077
880000	-0.589753846153846
880833	-0.615384615384615
881667	-0.641046153846154
882500	-0.666676923076923
883333	0.307692307692307
884167	0.28203076923077
885000	0.2564
885833	0.230769230769231
886667	0.205107692307692
887500	0.179476923076923
888333	0.153846153846153
889167	0.128184615384615
890000	0.102553846153846
890833	-0.923076923076923
891667	-0.948738461538461
892500	-0.974369230769231
893333	-1
894167	-1.02566153846154
895000	-1.05129230769231
895833	-1.07692307692308
896667	-1.10258461538462
897500	-1.12821538461538
898333	-1.15384615384615
899167	-1.17950769230769
900000	-1.20513846153846
900833	-1.23076923076923
901667	-1.25643076923077
902500	-0.282061538461539
903333	-0.307692307692307
904167	-0.333353846153846
905000	-0.358984615384616
905833	-0.384615384615385
906667	0.589723076923077
907500	0.564092307692308
908333	0.538461538461538
909167	0.5128
910000	0.487169230769231
910833	0.461538461538462
911667	0.435876923076924
912500	0.410246153846154
913333	1.38461538461539
914167	1.35895384615385
915000	1.33332307692308
915833	1.30769230769231
916667	1.28203076923077
917500	1.2564
918333	1.23076923076923
919167	1.20510769230769
920000	1.17947692307692
920833	1.15384615384615
921667	1.12818461538462
922500	1.10255384615385
923333	0.0769230769230767
924167	0.0512615384615387
925000	0.0256307692307693
925833	0
926667	0.00855384615384658
927500	0.0170974358974361
928333	0.0256410256410256
929167	0.0341948717948721
930000	0.0427384615384616
930833	0.0512820512820511
931667	0.0598358974358977
932500	0.0683794871794872
933333	0.0769230769230767
934167	0.0854769230769232
935000	0.0940205128205127
935833	0.102564102564102
936667	0.111117948717949
937500	0.119661538461538
938333	-0.871794871794872
939167	0.136758974358974
940000	-0.854697435897436
940833	-0.846153846153846
941667	-0.8376
942500	-0.829056410256411
943333	-0.82051282051282
944167	-0.811958974358975
945000	-0.803415384615384
945833	-0.794871794871795
946667	-0.786317948717949
947500	-0.777774358974359
948333	-0.769230769230769
949167	-0.760676923076923
950000	-0.752133333333333
950833	-1.74358974358974
951667	-1.7350358974359
952500	-1.72649230769231
953333	-0.717948717948718
954167	-0.709394871794871
955000	-0.700851282051282
955833	-0.692307692307693
956667	-0.683753846153846
957500	-0.675210256410256
958333	0.333333333333333
959167	-0.65811282051282
960000	-0.649569230769231
960833	0.358974358974359
961667	0.367528205128205
962500	-0.623928205128205
963333	-0.615384615384615
964167	-0.606830769230769
965000	-0.59828717948718
965833	-0.589743589743589
966667	-0.581189743589744
967500	-0.572646153846154
968333	-0.564102564102564
969167	-0.555548717948718
970000	-0.547005128205128
970833	-0.538461538461538
971667	-0.529907692307693
972500	-0.521364102564102
973333	-0.512820512820513
974167	-0.504266666666666
975000	-1.49572307692308
975833	-1.48717948717949
976667	-1.47862564102564
977500	-1.47008205128205
978333	-1.46153846153846
979167	-1.45298461538462
980000	-1.44444102564103
980833	-1.43589743589744
981667	-1.42734358974359
982500	-1.4188
983333	-1.41025641025641
984167	-1.40170256410256
985000	-1.39315897435897
985833	-0.384615384615385
986667	-0.376061538461538
987500	-0.367517948717949
988333	-0.358974358974359
989167	-0.350420512820513
990000	-0.341876923076923
990833	-0.333333333333333
991667	-0.324779487179487
992500	-0.316235897435897
993333	-1.30769230769231
994167	-1.29913846153846
995000	-1.29059487179487
995833	-1.28205128205128
996667	-1.27349743589744
997500	-1.26495384615385
998333	-1.25641025641026
999167	-1.24785641025641
1000000	-1.23931282051282
1000833	-1.23076923076923
1001667	-1.22221538461538
1002500	-1.21367179487179
1003333	-1.20512820512821
1004167	-1.19657435897436
1005000	-1.18803076923077
1005833	-0.17948717948718
1006667	-0.170933333333333
1007500	-0.162389743589744
1008333	-0.153846153846154
1009167	-0.145292307692308
1010000	-0.136748717948718
1010833	-1.12820512820513
1011667	-1.11965128205128
1012500	-1.11110769230769
1013333	-1.1025641025641
1014167	-1.09401025641026
1015000	-0.085466666666667
1015833	-0.0769230769230767
1016667	-0.068369230769231
1017500	-0.0598256410256415
1018333	-0.0512820512820511
1019167	-0.0427282051282054
1020000	-0.034184615384615
1020833	-0.0256410256410256
1021667	-0.0170871794871799
1022500	-0.00854358974358949
1023333	0
1024167	-0.00855384615384658
1025000	-0.0170974358974361
1025833	-0.0256410256410256
1026667	-0.0341948717948721
1027500	-0.0427384615384616
1028333	-0.0512820512820511
1029167	-0.0598358974358977
1030000	-0.0683794871794872
1030833	-1.07692307692308
1031667	-1.08547692307692
1032500	-1.09402051282051
1033333	-1.1025641025641
1034167	-1.11111794871795
1035000	-1.11966153846154
1035833	-1.12820512820513
1036667	-1.13675897435897
1037500	-1.14530256410256
1038333	-1.15384615384615
1039167	-1.1624
1040000	-1.17094358974359
1040833	-1.17948717948718
1041667	-1.18804102564103
1042500	-1.19658461538462
1043333	-1.20512820512821
1044167	-1.21368205128205
1045000	-1.22222564102564
1045833	-1.23076923076923
1046667	-1.23932307692308
1047500	-1.24786666666667
1048333	-1.25641025641026
1049167	-1.2649641025641
1050000	-1.27350769230769
1050833	-1.28205128205128
1051667	-2.29060512820513
1052500	-2.29914871794872
1053333	-2.30769230769231
1054167	-1.31624615384615
1055000	-1.32478974358974
1055833	-1.33333333333333
1056667	-1.34188717948718
1057500	-1.35043076923077
1058333	-1.35897435897436
1059167	-0.367528205128205
1060000	-1.37607179487179
1060833	-1.38461538461539
1061667	-0.393169230769231
1062500	-0.40171282051282
1063333	-0.410256410256411
1064167	-0.418810256410256
1065000	0.572646153846154
1065833	0.564102564102564
1066667	0.555548717948718
1067500	0.547005128205128
1068333	-0.461538461538462
1069167	-0.470092307692307
1070000	-0.478635897435898
1070833	-0.487179487179487
1071667	-0.495733333333334
1072500	-0.504276923076923
1073333	-0.512820512820513
1074167	-0.521374358974359
1075000	-0.529917948717949
1075833	-0.538461538461538
1076667	-0.547015384615385
1077500	0.444441025641026
1078333	0.435897435897436
1079167	0.42734358974359
1080000	0.4188
1080833	-0.589743589743589
1081667	-0.598297435897436
1082500	-0.606841025641025
1083333	-0.615384615384615
1084167	-0.623938461538462
1085000	-0.632482051282051
1085833	-0.641025641025641
1086667	-0.649579487179487
1087500	0.341876923076923
1088333	0.333333333333333
1089167	0.324779487179487
1090000	0.316235897435897
1090833	0.307692307692307
1091667	0.299138461538462
1092500	0.290594871794871
1093333	0.282051282051282
1094167	-0.726502564102564
1095000	0.264953846153846
1095833	0.256410256410256
1096667	0.247856410256411
1097500	0.23931282051282
1098333	0.230769230769231
1099167	-0.777784615384616
1100000	-0.786328205128205
1100833	-0.794871794871795
1101667	-0.803425641025641
1102500	0.188030769230769
1103333	0.17948717948718
1104167	0.170933333333333
1105000	0.162389743589744
1105833	-0.846153846153846
1106667	-0.854707692307692
1107500	-0.863251282051282
1108333	-0.871794871794872
1109167	-0.880348717948718
1110000	-0.888892307692307
1110833	-0.897435897435898
1111667	0.0940102564102565
1112500	0.085466666666667
1113333	0.0769230769230767
1114167	0.068369230769231
1115000	0.0598256410256415
1115833	0.0512820512820511
1116667	0.0427282051282054
1117500	1.03418461538462
1118333	1.02564102564103
1119167	1.01708717948718
1120000	0.00854358974358949
1120833	0
1121667	-0.00855384615384658
1122500	-0.0170974358974352
1123333	-0.0256410256410256
1124167	-0.0341948717948721
1125000	-0.0427384615384607
1125833	-0.0512820512820511
1126667	-1.0598358974359
1127500	-1.06837948717949
1128333	-0.0769230769230767
1129167	-0.0854769230769232
1130000	-0.0940205128205136
1130833	0.897435897435898
1131667	0.888882051282051
1132500	0.880338461538461
1133333	0.871794871794872
1134167	0.863241025641026
1135000	0.854697435897435
1135833	0.846153846153847
1136667	0.8376
1137500	0.82905641025641
1138333	1.82051282051282
1139167	1.81195897435897
1140000	1.80341538461538
1140833	1.7948717948718
1141667	1.78631794871795
1142500	1.77777435897436
1143333	1.76923076923077
1144167	1.76067692307692
1145000	1.75213333333333
1145833	1.74358974358974
1146667	1.7350358974359
1147500	1.72649230769231
1148333	0.717948717948717
1149167	0.709394871794872
1150000	-0.299148717948718
1150833	-0.307692307692308
1151667	-0.316246153846153
1152500	-0.324789743589744
1153333	0.666666666666666
1154167	0.658112820512821
1155000	0.649569230769231
1155833	0.641025641025641
1156667	1.6324717948718
1157500	0.623928205128205
1158333	0.615384615384615
1159167	0.606830769230768
1160000	0.59828717948718
1160833	0.589743589743589
1161667	-0.418810256410257
1162500	-0.427353846153846
1163333	-1.43589743589744
1164167	-1.44445128205128
1165000	-0.452994871794871
1165833	-0.461538461538462
1166667	-0.470092307692308
1167500	-0.478635897435897
1168333	-0.487179487179487
1169167	0.504266666666666
1170000	0.495723076923078
1170833	0.487179487179487
1171667	0.478625641025641
1172500	0.470082051282052
1173333	0.461538461538462
1174167	0.452984615384615
1175000	0.444441025641027
1175833	0.435897435897436
1176667	-0.57265641025641
1177500	-0.581200000000001
1178333	-0.589743589743589
1179167	-0.598297435897436
1180000	-0.606841025641026
1180833	-0.615384615384615
1181667	-0.623938461538462
1182500	-0.632482051282052
1183333	-0.641025641025641
1184167	-0.649579487179487
1185000	-0.658123076923077
1185833	-0.666666666666666
1186667	0.324779487179487
1187500	0.316235897435897
1188333	0.307692307692308
1189167	0.299138461538462
1190000	0.290594871794871
1190833	0.282051282051283
1191667	0.273497435897436
1192500	0.264953846153846
1193333	0.256410256410256
1194167	0.247856410256411
1195000	0.23931282051282
1195833	0.23076923076923
1196667	0.222215384615385
1197500	0.213671794871795
1198333	0.205128205128204
1199167	0.19657435897436
1200000	0.188030769230769
1200833	0.179487179487179
1201667	0.170933333333334
1202500	0.162389743589744
1203333	0.153846153846153
1204167	0.145292307692309
1205000	0.136748717948718
1205833	0.128205128205128
1206667	0.119651282051283
1207500	0.111107692307693
1208333	0.102564102564102
1209167	0.0940102564102556
1210000	0.085466666666667
1210833	0.0769230769230767
1211667	0.0683692307692301
1212500	0.0598256410256415
1213333	1.05128205128205
1214167	0.0427282051282045
1215000	0.0341846153846159
1215833	0.0256410256410256
1216667	0.017087179487179
1217500	0.00854358974359037
1218333	0
1219167	0
1220000	0
1220833	0
1221667	0
1222500	0
1223333	0
1224167	0
1225000	0
1225833	0
1226667	0
1227500	0
1228333	0
1229167	0
1230000	0
1230833	0
1231667	0
1232500	1
1233333	1
1234167	1
1235000	1
1235833	1
1236667	0
1237500	0
1238333	0
1239167	0
1240000	1
1240833	1
1241667	0
1242500	0
1243333	0
1244167	0
1245000	0
1245833	0
1246667	0
1247500	0
1248333	1
1249167	1
1250000	0
1250833	0
1251667	1
1252500	1
1253333	1
1254167	1
1255000	1
1255833	0
1256667	0
1257500	0
1258333	0
1259167	0
1260000	-1
1260833	-1
1261667	-1
1262500	-2
1263333	-2
1264167	-1
1265000	-1
1265833	-1
1266667	0
1267500	0
1268333	0
1269167	0
1270000	0
1270833	1
1271667	1
1272500	1
1273333	0
1274167	0
1275000	0
1275833	0
1276667	0
1277500	1
1278333	1
1279167	1
1280000	1
1280833	0
1281667	1
1282500	1
1283333	1
1284167	1
1285000	1
1285833	1
1286667	1
1287500	1
1288333	1
1289167	1
1290000	1
1290833	1
1291667	1
1292500	1
1293333	1
1294167	1
1295000	0
1295833	0
1296667	0
1297500	0
1298333	0
1299167	0
1300000	0
1300833	0
1301667	1
1302500	1
1303333	1
1304167	1
1305000	0
1305833	0
1306667	0
1307500	0
1308333	0
1309167	0
1310000	0
1310833	0
1311667	0
1312500	0
1313333	0
1314167	0
1315000	0
1315833	0
1316667	-1.00855384615385
1317500	-1.01709743589744
1318333	-1.02564102564103
1319167	-1.03419487179487
1320000	-1.04273846153846
1320833	-1.05128205128205
1321667	-2.0598358974359
1322500	-2.06837948717949
1323333	-1.07692307692308
1324167	-1.08547692307692
1325000	-1.09402051282051
1325833	-1.1025641025641
1326667	-1.11111794871795
1327500	-1.11966153846154
1328333	-1.12820512820513
1329167	-1.13675897435897
1330000	-1.14530256410256
1330833	-1.15384615384615
1331667	-2.1624
1332500	-2.17094358974359
1333333	-1.17948717948718
1334167	-1.18804102564103
1335000	-1.19658461538462
1335833	-0.205128205128204
1336667	-0.213682051282051
1337500	-0.222225641025641
1338333	-0.23076923076923
1339167	-0.239323076923077
1340000	-0.247866666666667
1340833	-0.256410256410256
1341667	-1.2649641025641
1342500	-1.27350769230769
1343333	-1.28205128205128
1344167	-1.29060512820513
1345000	-1.29914871794872
1345833	-0.307692307692308
1346667	-0.316246153846153
1347500	-0.324789743589744
1348333	-1.33333333333333
1349167	-1.34188717948718
1350000	-1.35043076923077
1350833	-1.35897435897436
1351667	-1.3675282051282
1352500	-1.37607179487179
1353333	-1.38461538461539
1354167	-1.39316923076923
1355000	-1.40171282051282
1355833	-0.410256410256411
1356667	-0.418810256410257
1357500	-0.427353846153846
1358333	-1.43589743589744
1359167	-1.44445128205128
1360000	-1.45299487179487
1360833	-1.46153846153846
1361667	-1.47009230769231
1362500	-1.4786358974359
1363333	-1.48717948717949
1364167	-0.495733333333334
1365000	-0.504276923076922
1365833	-0.512820512820513
1366667	-0.521374358974359
1367500	-0.529917948717948
1368333	-0.538461538461538
1369167	-0.547015384615385
1370000	-0.555558974358974
1370833	-0.564102564102564
1371667	-0.57265641025641
1372500	-0.581200000000001
1373333	-0.589743589743589
1374167	-0.598297435897436
1375000	-0.606841025641026
1375833	0.384615384615385
1376667	0.376061538461538
1377500	0.367517948717948
1378333	-0.641025641025641
1379167	-0.649579487179487
1380000	0.341876923076923
1380833	0.333333333333334
1381667	0.324779487179487
1382500	0.316235897435897
1383333	0.307692307692308
1384167	0.299138461538462
1385000	0.290594871794871
1385833	0.282051282051283
1386667	0.273497435897436
1387500	0.264953846153846
1388333	0.256410256410256
1389167	0.247856410256411
1390000	0.23931282051282
1390833	0.23076923076923
1391667	0.222215384615385
1392500	0.213671794871795
1393333	0.205128205128204
1394167	1.19657435897436
1395000	1.18803076923077
1395833	1.17948717948718
1396667	1.17093333333333
1397500	0.162389743589744
1398333	0.153846153846153
1399167	0.145292307692309
1400000	1.13674871794872
1400833	1.12820512820513
1401667	1.11965128205128
1402500	1.11110769230769
1403333	1.1025641025641
1404167	1.09401025641026
1405000	1.08546666666667
1405833	1.07692307692308
1406667	1.06836923076923
1407500	1.05982564102564
1408333	1.05128205128205
1409167	1.0427282051282
1410000	2.03418461538462
1410833	1.02564102564103
1411667	1.01708717948718
1412500	1.00854358974359
1413333	0
1414167	-0.00855384615384658
1415000	-0.0170974358974352
1415833	-0.0256410256410256
1416667	-0.0341948717948721
1417500	-0.0427384615384607
1418333	-0.0512820512820511
1419167	-0.0598358974358977
1420000	-0.0683794871794881
1420833	-0.0769230769230767
1421667	-0.0854769230769232
1422500	-0.0940205128205136
1423333	0.897435897435898
1424167	0.888882051282051
1425000	0.880338461538461
1425833	0.871794871794872
1426667	0.863241025641026
1427500	0.854697435897435
1428333	0.846153846153847
1429167	0.8376
1430000	0.82905641025641
1430833	0.820512820512821
1431667	0.811958974358975
1432500	0.803415384615384
1433333	0.794871794871796
1434167	-0.213682051282051
1435000	-0.222225641025641
1435833	-0.23076923076923
1436667	-0.239323076923077
1437500	-0.247866666666667
1438333	-0.256410256410256
1439167	-0.264964102564102
1440000	-0.273507692307692
1440833	-0.282051282051283
1441667	-1.29060512820513
1442500	-1.29914871794872
1443333	-1.30769230769231
1444167	-1.31624615384615
1445000	-1.32478974358974
1445833	-1.33333333333333
1446667	-0.341887179487179
1447500	-0.350430769230769
1448333	-0.358974358974359
1449167	-0.367528205128204
1450000	-0.376071794871795
1450833	-1.38461538461539
1451667	-1.39316923076923
1452500	-1.40171282051282
1453333	-1.41025641025641
1454167	-1.41881025641026
1455000	-1.42735384615385
1455833	-1.43589743589744
1456667	-1.44445128205128
1457500	-1.45299487179487
1458333	-1.46153846153846
1459167	-1.47009230769231
1460000	-1.4786358974359
1460833	-1.48717948717949
1461667	-1.49573333333333
1462500	-1.50427692307692
1463333	-0.512820512820513
1464167	-0.521374358974359
1465000	-1.52991794871795
1465833	-1.53846153846154
1466667	-0.547015384615385
1467500	-0.555558974358974
1468333	-0.564102564102564
1469167	-0.57265641025641
1470000	-0.581200000000001
1470833	-0.589743589743589
1471667	-0.598297435897436
1472500	-1.60684102564103
1473333	-1.61538461538462
1474167	-1.62393846153846
1475000	-1.63248205128205
1475833	-1.64102564102564
1476667	-0.649579487179487
1477500	-1.65812307692308
1478333	-0.666666666666666
1479167	-0.675220512820513
1480000	-0.683764102564103
1480833	-0.692307692307692
1481667	-0.700861538461538
1482500	-1.70940512820513
1483333	-1.71794871794872
1484167	-0.726502564102564
1485000	-0.735046153846154
1485833	-0.743589743589745
1486667	-0.752143589743589
1487500	-0.76068717948718
1488333	-0.76923076923077
1489167	-0.777784615384615
1490000	-0.786328205128205
1490833	-0.794871794871796
1491667	-0.80342564102564
1492500	-0.811969230769231
1493333	-0.820512820512821
1494167	-0.829066666666666
1495000	-0.837610256410256
1495833	-0.846153846153847
1496667	-0.854707692307692
1497500	-0.863251282051282
1498333	-0.871794871794872
1499167	-0.880348717948717
1500000	-0.888892307692307
1500833	-0.897435897435898
1501667	-0.905989743589744
1502500	0.085466666666667
1503333	0.0769230769230767
1504167	0.0683692307692301
1505000	0.0598256410256415
1505833	0.0512820512820511
1506667	0.0427282051282045
1507500	0.0341846153846159
1508333	0.0256410256410256
1509167	1.01708717948718
1510000	1.00854358974359
1510833	0
1511667	0
1512500	0
1513333	0
1514167	-1
1515000	0
1515833	0
1516667	0
1517500	0
1518333	0
1519167	0
1520000	0
1520833	0
1521667	0
1522500	-1
1523333	-1
1524167	-1
1525000	-1
1525833	-1
1526667	0
1527500	0
1528333	0
1529167	0
1530000	0
1530833	-1
1531667	-1
1532500	-1
1533333	-2
1534167	-1
1535000	-1
1535833	0
1536667	0
1537500	0
1538333	-1
1539167	-1
1540000	-1
1540833	-1
1541667	-1
1542500	-1
1543333	-1
1544167	-1
1545000	-1
1545833	-1
1546667	-1
1547500	-1
1548333	0
1549167	0
1550000	0
1550833	0
1551667	0
1552500	0
1553333	0
1554167	0
1555000	-1
1555833	-1
1556667	0
1557500	0
1558333	0
1559167	0
1560000	0
1560833	0
1561667	1
1562500	1
1563333	1
1564167	1
1565000	1
1565833	1
1566667	0
1567500	0
1568333	0
1569167	0
1570000	0
1570833	0
1571667	0
1572500	1
1573333	1
1574167	1
1575000	1
1575833	1
1576667	2
1577500	2
1578333	2
1579167	2
1580000	1
1580833	1
1581667	1
1582500	0
1583333	0
1584167	0
1585000	0
1585833	0
1586667	0
1587500	0
1588333	0
1589167	0
1590000	0
1590833	1
1591667	0
1592500	0
1593333	0
1594167	0
1595000	0
1595833	0
1596667	0
1597500	-1
1598333	-1
1599167	-1
1600000	-1
1600833	-1
1601667	0
1602500	-1
1603333	-1
1604167	-1
1605000	0
1605833	0
1606667	0
1607500	0
1608333	0
1609167	-0.0171076923076932
1610000	-0.0341948717948721
1610833	-0.0512820512820511
1611667	-0.0683897435897443
1612500	-0.0854769230769232
1613333	-1.1025641025641
1614167	-1.1196717948718
1615000	-1.13675897435897
1615833	-0.153846153846153
1616667	-0.170953846153846
1617500	-0.188041025641025
1618333	-0.205128205128204
1619167	-0.222235897435898
1620000	-0.239323076923077
1620833	-0.256410256410256
1621667	-0.273517948717949
1622500	-0.290605128205128
1623333	-0.307692307692308
1624167	0.6752
1625000	-0.341887179487179
1625833	-0.358974358974359
1626667	-0.376082051282051
1627500	-0.393169230769232
1628333	-0.410256410256411
1629167	-0.427364102564102
1630000	-0.444451282051283
1630833	-0.461538461538462
1631667	-0.478646153846153
1632500	-0.495733333333334
1633333	-0.512820512820513
1634167	-0.529928205128206
1635000	-0.547015384615385
1635833	-0.564102564102564
1636667	-0.581210256410257
1637500	-0.598297435897436
1638333	-0.615384615384615
1639167	-0.632492307692308
1640000	0.350420512820513
1640833	0.333333333333334
1641667	0.316225641025641
1642500	0.299138461538462
1643333	0.282051282051283
1644167	0.26494358974359
1645000	0.247856410256411
1645833	0.23076923076923
1646667	0.213661538461539
1647500	0.19657435897436
1648333	0.179487179487179
1649167	0.162379487179487
1650000	-0.854707692307692
1650833	0.128205128205128
1651667	0.111097435897436
1652500	-0.905989743589744
1653333	-0.923076923076923
1654167	-0.940184615384615
1655000	-0.957271794871795
1655833	0.0256410256410256
1656667	0.00853333333333239
1657500	-0.00855384615384658
1658333	-0.0256410256410256
1659167	-0.0427487179487187
1660000	-0.0598358974358977
1660833	-0.0769230769230767
1661667	-0.0940307692307698
1662500	-0.111117948717949
1663333	-0.128205128205128
1664167	-0.145312820512821
1665000	-0.1624
1665833	-0.179487179487179
1666667	-0.196594871794872
1667500	-0.213682051282051
1668333	-0.23076923076923
1669167	-0.247876923076923
1670000	0.735035897435898
1670833	0.717948717948717
1671667	0.700841025641026
1672500	0.683753846153847
1673333	1.66666666666667
1674167	1.64955897435897
1675000	1.63247179487179
1675833	1.61538461538462
1676667	1.59827692307692
1677500	1.58118974358974
1678333	1.56410256410256
1679167	1.54699487179487
1680000	1.52990769230769
1680833	1.51282051282051
1681667	1.49571282051282
1682500	1.47862564102564
1683333	0.461538461538462
1684167	0.444430769230769
1685000	1.42734358974359
1685833	1.41025641025641
1686667	1.39314871794872
1687500	1.37606153846154
1688333	1.35897435897436
1689167	0.341866666666666
1690000	0.324779487179487
1690833	0.307692307692308
1691667	0.290584615384615
1692500	0.273497435897436
1693333	0.256410256410256
1694167	1.23930256410256
1695000	1.22221538461539
1695833	0.205128205128204
1696667	0.188020512820513
1697500	1.17093333333333
1698333	1.15384615384615
1699167	1.13673846153846
1700000	1.11965128205128
1700833	1.1025641025641
1701667	1.08545641025641
1702500	1.06836923076923
1703333	0.0512820512820511
1704167	0.0341743589743597
1705000	0.017087179487179
1705833	0
1706667	-0.00855384615384658
1707500	-0.0170974358974352
1708333	-0.0256410256410256
1709167	-0.0341948717948721
1710000	-0.0427384615384607
1710833	-0.0512820512820511
1711667	-0.0598358974358977
1712500	-0.0683794871794881
1713333	-0.0769230769230767
1714167	0.914523076923077
1715000	0.905979487179486
1715833	0.897435897435898
1716667	0.888882051282051
1717500	0.880338461538461
1718333	0.871794871794872
1719167	0.863241025641026
1720000	0.854697435897435
1720833	0.846153846153847
1721667	0.8376
1722500	0.82905641025641
1723333	0.820512820512821
1724167	-0.188041025641025
1725000	-0.196584615384616
1725833	-0.205128205128204
1726667	-0.213682051282051
1727500	-1.22222564102564
1728333	-1.23076923076923
1729167	-1.23932307692308
1730000	-1.24786666666667
1730833	-0.256410256410256
1731667	-0.264964102564102
1732500	-0.273507692307692
1733333	-0.282051282051283
1734167	-0.290605128205128
1735000	-0.299148717948718
1735833	-0.307692307692308
1736667	0.683753846153847
1737500	0.675210256410256
1738333	0.666666666666666
1739167	0.658112820512821
1740000	-0.350430769230769
1740833	-0.358974358974359
1741667	-0.367528205128204
1742500	-0.376071794871795
1743333	0.615384615384615
1744167	0.606830769230768
1745000	0.59828717948718
1745833	0.589743589743589
1746667	-0.418810256410257
1747500	-0.427353846153846
1748333	-0.435897435897436
1749167	-0.444451282051283
1750000	-0.452994871794871
1750833	-0.461538461538462
1751667	-0.470092307692308
1752500	-0.478635897435897
1753333	0.512820512820513
1754167	0.504266666666666
1755000	0.495723076923078
1755833	-0.512820512820513
1756667	0.478625641025641
1757500	0.470082051282052
1758333	0.461538461538462
1759167	0.452984615384615
1760000	0.444441025641027
1760833	0.435897435897436
1761667	-0.57265641025641
1762500	-0.581200000000001
1763333	-0.589743589743589
1764167	-0.598297435897436
1765000	-0.606841025641026
1765833	-0.615384615384615
1766667	-0.623938461538462
1767500	-0.632482051282052
1768333	-0.641025641025641
1769167	-0.649579487179487
1770000	0.341876923076923
1770833	0.333333333333334
1771667	0.324779487179487
1772500	1.3162358974359
1773333	1.30769230769231
1774167	1.29913846153846
1775000	1.29059487179487
1775833	0.282051282051283
1776667	0.273497435897436
1777500	0.264953846153846
1778333	0.256410256410256
1779167	-0.752143589743589
1780000	0.23931282051282
1780833	0.23076923076923
1781667	-0.777784615384615
1782500	0.213671794871795
1783333	0.205128205128204
1784167	0.19657435897436
1785000	1.18803076923077
1785833	1.17948717948718
1786667	1.17093333333333
1787500	0.162389743589744
1788333	0.153846153846153
1789167	0.145292307692309
1790000	0.136748717948718
1790833	0.128205128205128
1791667	-0.880348717948717
1792500	-0.888892307692307
1793333	-0.897435897435898
1794167	-0.905989743589744
1795000	-0.914533333333333
1795833	-0.923076923076923
1796667	-0.93163076923077
1797500	-0.940174358974359
1798333	0.0512820512820511
1799167	-0.957271794871795
1800000	-0.965815384615384
1800833	0.0256410256410256
1801667	0.017087179487179
1802500	0.00854358974359037
1803333	0
1804167	0.00389568566868626
1805000	1.00778670025144
1805833	1.01167771483419
1806667	1.01557340050288
1807500	1.01946441508563
1808333	1.02335542966839
1809167	1.02725111533707
1810000	1.03114212991983
1810833	0.0350331445025827
1811667	0.0389288301712689
1812500	0.0428198447540229
1813333	0.0467108593367769
1814167	-0.949393454994537
1815000	0.0544975595882171
1815833	0.0583885741709693
1816667	0.0622842598396574
1817500	0.0661752744224113
1818333	0.0700662890051635
1819167	0.0739619746738516
1820000	-0.922147010743396
1820833	-0.918255996160642
1821667	-0.914360310491954
1822500	-0.910469295909202
1823333	-0.906578281326448
1824167	0.0973174043422382
1825000	0.101208418924992
1825833	0.105099433507746
1826667	0.108995119176432
1827500	0.112886133759186
1828333	0.11677714834194
1829167	0.120672834010627
1830000	0.124563848593381
1830833	0.128454863176135
1831667	0.132350548844821
1832500	0.136241563427575
1833333	0.140132578010329
1834167	0.144028263679015
1835000	0.147919278261769
1835833	-0.848189707155479
1836667	0.155705978513209
1837500	0.159596993095963
1838333	0.163488007678716
1839167	-0.832616306652596
1840000	-0.828725292069844
1840833	-0.82483427748709
1841667	-0.820938591818402
1842500	0.18295242276435
1843333	0.186843437347104
1844167	-0.809260876984208
1845000	-0.805369862401456
1845833	-0.801478847818702
1846667	-0.797583162150016
1847500	0.206307852432738
1848333	0.210198867015492
1849167	0.214094552684179
1850000	0.217985567266933
1850833	0.221876581849687
1851667	-0.774227732481627
1852500	0.229663282101127
1853333	0.233554296683881
1854167	0.237449982352567
1855000	0.241340996935321
1855833	0.245232011518073
1856667	0.249127697186761
1857500	0.253018711769515
1858333	-0.743090273647733
1859167	-0.739194587979044
1860000	-0.73530357339629
1860833	-0.731412558813538
1861667	-0.72751687314485
1862500	-0.723625858562098
1863333	-0.719734843979344
1864167	-0.715839158310656
1865000	-0.711948143727904
1865833	-1.70805712914515
1866667	-1.70416144347646
1867500	-2.70027042889371
1868333	-2.69637941431096
1869167	-3.69248372864227
1870000	-3.68859271405952
1870833	-4.68470169947676
1871667	-5.68080601380808
1872500	-5.67691499922532
1873333	-6.67302398464257
1874167	-7.66912829897388
1875000	-7.66523728439113
1875833	-8.66134626980837
1876667	-9.65745058413969
1877500	-9.65355956955693
1878333	-10.6496685549742
1879167	-11.6457728693055
1880000	-12.6418818547227
1880833	-14.63799084014
1881667	-15.6340951544713
1882500	-16.6302041398885
1883333	-17.6263131253058
1884167	-18.6224174396371
1885000	-20.6185264250544
1885833	-21.6146354104716
1886667	-23.6107397248029
1887500	-25.6068487102202
1888333	-27.6029576956374
1889167	-28.5990620099687
1890000	-30.595170995386
1890833	-32.5912799808032
1891667	-34.5873842951345
1892500	-36.5834932805518
1893333	-39.579602265969
1894167	-41.5757065803003
1895000	-44.5718155657176
1895833	-46.5679245511348
1896667	-48.5640288654661
1897500	-51.5601378508834
1898333	-53.5562468363006
1899167	-56.5523511506319
1900000	-59.5484601360492
1900833	-61.5445691214664
1901667	-64.5406734357977
1902500	-66.536782421215
1903333	-68.5328914066322
1904167	-71.5289957209636
1905000	-73.5251047063808
1905833	-75.521213691798
1906667	-76.5173180061294
1907500	-78.5134269915466
1908333	-80.5095359769638
1909167	-81.5056402912952
1910000	-83.5017492767124
1910833	-84.4978582621297
1911667	-85.493962576461
1912500	-86.4900715618782
1913333	-87.4861805472955
1914167	-87.4822848616268
1915000	-87.478393847044
1915833	-87.4745028324613
1916667	-87.4706071467926
1917500	-86.4667161322098
1918333	-85.4628251176271
1919167	-84.4589294319584
1920000	-83.4550384173756
1920833	-82.4511474027929
1921667	-80.4472517171242
1922500	-78.4433607025414
1923333	-77.4394696879587
1924167	-74.43557400229
1925000	-71.4316829877072
1925833	-69.4277919731245
1926667	-66.4238962874558
1927500	-63.4200052728731
1928333	-60.4161142582903
1929167	-57.4122185726216
1930000	-54.4083275580389
1930833	-51.4044365434561
1931667	-48.4005408577874
1932500	-45.3966498432047
1933333	-41.3927588286219
1934167	-38.3888631429532
1935000	-35.3849721283705
1935833	-31.3810811137877
1936667	-28.377185428119
1937500	-25.3732944135363
1938333	-21.3694033989535
1939167	-18.3655077132848
1940000	-15.3616166987021
1940833	-12.3577256841193
1941667	-9.35382999845064
1942500	-7.34993898386789
1943333	-4.34604796928514
1944167	-2.34215228361645
1945000	-0.338261269033696
1945833	1.66562974554906
1946667	4.66952543121775
1947500	5.6734164458005
1948333	7.67730746038325
1949167	8.68120314605194
1950000	10.6850941606347
1950833	11.6889851752174
1951667	11.6928808608861
1952500	12.6967718754689
1953333	13.7006628900516
1954167	13.7045585757203
1955000	14.7084495903031
1955833	14.7123406048858
1956667	14.7162362905545
1957500	14.7201273051373
1958333	14.72401831972
1959167	14.7279140053887
1960000	13.7318050199715
1960833	13.7356960345542
1961667	13.7395917202229
1962500	13.7434827348057
1963333	13.7473737493884
1964167	12.7512694350571
1965000	12.7551604496399
1965833	12.7590514642226
1966667	11.7629471498913
1967500	10.7668381644741
1968333	10.7707291790568
1969167	9.77462486472549
1970000	9.77851587930824
1970833	8.782406893891
1971667	8.78630257955968
1972500	7.79019359414244
1973333	7.79408460872519
1974167	6.79798029439388
1975000	6.80187130897663
1975833	5.80576232355939
1976667	5.80965800922807
1977500	4.81354902381083
1978333	3.81744003839358
1979167	3.82133572406227
1980000	3.82522673864502
1980833	2.82911775322777
1981667	2.83301343889646
1982500	1.83690445347921
1983333	1.84079546806197
1984167	1.84469115373066
1985000	1.84858216831341
1985833	1.92822007371961
1986667	2.03663919273154
1987500	1.14492831279981
1988333	1.25321743286807
1989167	1.36163655188
1990000	1.46992567194827
1990833	1.57821479201654
1991667	1.68663391102847
1992500	1.79492303109673
1993333	1.903212151165
1994167	2.01163127017693
1995000	2.1199203902452
1995833	2.22820951031347
1996667	2.33662862932539
1997500	2.44491774939366
1998333	2.55320686946193
1999167	2.66162598847386
2000000	2.76991510854213
2000833	1.87820422861039
2001667	1.98662334762232
2002500	2.09491246769059
2003333	2.20320158775886
2004167	1.31162070677079
2005000	1.41990982683905
2005833	1.52819894690732
2006667	1.63661806591925
2007500	1.74490718598752
2008333	1.85319630605579
2009167	1.96161542506771
2010000	1.06990454513598
2010833	0.178193665204251
2011667	0.28661278421618
2012500	0.394901904284447
2013333	0.503191024352716
2014167	0.611610143364643
2015000	0.719899263432911
2015833	0.821834047672365
2016667	0.776511301200165
2017500	-0.268757101451325
2018333	0.685974495897186
2019167	-0.359348250575014
2020000	-0.404616653226503
2020833	-1.44988505587799
2021667	-1.49520780235019
2022500	-2.54047620500168
2023333	-3.58574460765317
2024167	-3.63106735412537
2025000	-4.67633575677686
2025833	-4.72160415942835
2026667	-5.76692690590055
2027500	-6.81219530855204
2028333	-7.85746371120353
2029167	-8.90278645767573
2030000	-8.94805486032721
2030833	-9.99332326297871
2031667	-10.0386460094509
2032500	-11.0839144121024
2033333	-11.1291828147539
2034167	-12.1745055612261
2035000	-13.2197739638776
2035833	-14.2650423665291
2036667	-14.3103651130013
2037500	-15.3556335156528
2038333	-16.4009019183042
2039167	-17.4462246647764
2040000	-17.4914930674279
2040833	-18.5367614700794
2041667	-19.5820842165516
2042500	-19.6273526192031
2043333	-20.6726210218546
2044167	-20.7179437683268
2045000	-21.7632121709783
2045833	-22.8084805736298
2046667	-22.853803320102
2047500	-23.8990717227535
2048333	-24.944340125405
2049167	-25.9896628718772
2050000	-26.0349312745286
2050833	-27.0801996771801
2051667	-27.1255224236523
2052500	-28.1707908263038
2053333	-29.2160592289553
2054167	-29.2613819754275
2055000	-29.306650378079
2055833	-30.3519187807305
2056667	-30.3972415272027
2057500	-30.4425099298542
2058333	-30.4877783325057
2059167	-31.5331010789779
2060000	-31.5783694816294
2060833	-31.6236378842808
2061667	-32.668960630753
2062500	-32.7142290334045
2063333	-31.759497436056
2064167	-31.8048201825282
2065000	-31.8500885851797
2065833	-31.8953569878312
2066667	-31.9406797343034
2067500	-30.9859481369549
2068333	-31.0312165396064
2069167	-30.0765392860786
2070000	-29.1218076887301
2070833	-28.1670760913816
2071667	-28.2123988378538
2072500	-27.2576672405052
2073333	-27.3029356431567
2074167	-26.3482583896289
2075000	-25.3935267922804
2075833	-24.4387951949319
2076667	-24.4841179414041
2077500	-23.5293863440556
2078333	-22.5746547467071
2079167	-21.6199774931793
2080000	-20.6652458958308
2080833	-20.7105142984823
2081667	-19.7558370449545
2082500	-18.801105447606
2083333	-17.8463738502574
2084167	-16.8916965967296
2085000	-16.9369649993811
2085833	-15.9822334020326
2086667	-15.0275561485048
2087500	-14.0728245511563
2088333	-14.1180929538078
2089167	-13.16341570028
2090000	-12.2086841029315
2090833	-11.253952505583
2091667	-10.2992752520552
2092500	-9.34454365470667
2093333	-9.38981205735816
2094167	-8.43513480383036
2095000	-8.48040320648185
2095833	-7.52567160913334
2096667	-7.57099435560554
2097500	-6.61626275825703
2098333	-6.66153116090852
2099167	-5.70685390738072
2100000	-5.75212231003221
2100833	-4.79739071268369
2101667	-4.84271345915589
2102500	-4.88798186180738
2103333	-3.93325026445887
2104167	-3.97857301093107
2105000	-3.02384141358256
2105833	-3.06910981623405
2106667	-3.11443256270625
2107500	-3.15970096535774
2108333	-3.20496936800923
2109167	-3.25029211448143
2110000	-2.29556051713292
2110833	-2.34082891978441
2111667	-2.38615166625661
2112500	-2.4314200689081
2113333	-2.47668847155959
2114167	-2.52201121803179
2115000	-2.56727962068327
2115833	-1.61254802333476
2116667	-1.65787076980696
2117500	-1.70313917245845
2118333	-0.748407575109942
2119167	-0.793730321582142
2120000	-0.838998724233631
2120833	-0.884267126885121
2121667	-0.929589873357319
2122500	-0.97485827600881
2123333	-2.0201266786603
2124167	-2.0654494251325
2125000	-1.11071782778399
2125833	-1.14677939128175
2126667	-1.16967696146946
2127500	-0.192547076537055
2128333	-0.215417191604644
2129167	-0.238314761792363
2130000	-0.261184876859954
2130833	-0.284054991927542
2131667	-0.306952562115262
2132500	-0.329822677182852
2133333	-1.35269279225044
2134167	-1.37559036243816
2135000	-0.398460477505751
2135833	-0.421330592573339
2136667	-0.444228162761059
2137500	-0.467098277828647
2138333	0.510031607103763
2139167	-0.512865963083957
2140000	-0.535736078151546
2140833	0.441393806780864
2141667	0.418496236593144
2142500	0.395626121525556
2143333	0.372756006457966
2144167	0.349858436270248
2145000	0.326988321202657
2145833	0.304118206135067
2146667	0.281220635947349
2147500	0.258350520879759
2148333	0.235480405812169
2149167	1.21258283562445
2150000	1.18971272055686
2150833	0.16684260548927
2151667	0.143945035301552
2152500	0.121074920233962
2153333	0.0982048051663718
2154167	0.0753072349786539
2155000	0.0524371199110636
2155833	0.0295670048434751
2156667	0.00666943465575542
2157500	-0.0162006804118349
2158333	-0.0390707954794252
2159167	-0.0619683656671413
2160000	-0.0848384807347315
2160833	-1.10770859580232
2161667	-1.13060616599004
2162500	-1.15347628105763
2163333	-0.176346396125222
2164167	-0.199243966312938
2165000	-1.22211408138053
2165833	-1.24498419644812
2166667	-1.26788176663584
2167500	-0.290751881703429
2168333	-0.313621996771015
2169167	-0.336519566958735
2170000	-0.359389682026325
2170833	-0.382259797093916
2171667	0.594842632718365
2172500	0.571972517650778
2173333	0.549102402583188
2174167	0.526204832395468
2175000	0.503334717327878
2175833	-0.519535397739713
2176667	-0.542432967927432
2177500	-0.565303082995019
2178333	-0.588173198062609
2179167	-0.611070768250329
2180000	0.366059116682081
2180833	1.34318900161449
2181667	1.32029143142677
2182500	1.29742131635918
2183333	1.27455120129159
2184167	1.25165363110387
2185000	1.22878351603628
2185833	1.20591340096869
2186667	1.18301583078098
2187500	1.16014571571339
2188333	1.1372756006458
2189167	1.11437803045808
2190000	1.09150791539049
2190833	0.0686378003228967
2191667	0.0457402301351806
2192500	0.0228701150675903
2193333	0
2194167	-1
2195000	-1
2195833	-1
2196667	0
2197500	0
2198333	1
2199167	1
2200000	1
2200833	1
2201667	1
2202500	1
2203333	1
2204167	1
2205000	2
2205833	2
2206667	1
2207500	1
2208333	1
2209167	1
2210000	1
2210833	1
2211667	1
2212500	0
2213333	0
2214167	1
2215000	1
2215833	1
2216667	1
2217500	1
2218333	1
2219167	0
2220000	0
2220833	0
2221667	0
2222500	1
2223333	1
2224167	1
2225000	1
2225833	1
2226667	0
2227500	0
2228333	0
2229167	0
2230000	0
2230833	0
2231667	-1
2232500	0
2233333	0
2234167	0
2235000	0
2235833	0
2236667	0
2237500	1
2238333	1
2239167	1
2240000	1
2240833	1
2241667	1
2242500	1
2243333	1
2244167	0
2245000	0
2245833	0
2246667	0
2247500	0
2248333	0
2249167	0
2250000	0
2250833	1
2251667	1
2252500	1
2253333	1
2254167	1
2255000	1
2255833	2
2256667	1
2257500	1
2258333	2
2259167	2
2260000	2
2260833	2
2261667	2
2262500	2
2263333	1
2264167	1
2265000	1
2265833	1
2266667	1
2267500	1
2268333	1
2269167	1
2270000	1
2270833	1
2271667	1
2272500	1
2273333	1
2274167	0
2275000	0
2275833	0
2276667	1
2277500	1
2278333	0
2279167	0
2280000	0
2280833	0
2281667	0
2282500	0
2283333	0
2284167	0
2285000	0
2285833	0
2286667	0
2287500	0
2288333	0
2289167	0
2290000	0
2290833	0
2291667	-0.0805862215132933
2292500	-0.1610758168617
2293333	-0.241565412210107
2294167	-0.322151633723401
2295000	-0.402641229071808
2295833	-0.483130824420218
2296667	-0.563717045933508
2297500	-0.644206641281919
2298333	-0.724696236630326
2299167	-0.805282458143616
2300000	-0.885772053492026
2300833	-0.966261648840433
2301667	-2.04684787035373
2302500	-1.12733746570213
2303333	-1.20782706105054
2304167	-1.28841328256383
2305000	-1.36890287791224
2305833	-1.44939247326065
2306667	-1.52997869477394
2307500	-1.61046829012235
2308333	-1.69095788547076
2309167	-0.771544106984052
2310000	-0.852033702332459
2310833	-0.932523297680866
2311667	-1.01310951919416
2312500	-1.09359911454257
2313333	-1.17408870989097
2314167	-1.25467493140427
2315000	-0.335164526752674
2315833	-0.415654122101085
2316667	-0.496240343614375
2317500	-0.576729938962785
2318333	-0.657219534311192
2319167	0.262194244175515
2320000	1.18170464882711
2320833	1.1012150534787
2321667	2.02062883196541
2322500	1.940139236617
2323333	1.85964964126859
2324167	2.7790634197553
2325000	2.69857382440689
2325833	2.61808422905848
2326667	2.53749800754519
2327500	2.51429201555648
2328333	3.49932451614253
2329167	3.48433904854202
2330000	4.46937154912807
2330833	5.45440404971412
2331667	6.4394185821136
2332500	7.42445108269965
2333333	8.40948358328571
2334167	8.39449811568519
2335000	10.3795306162712
2335833	11.3645631168573
2336667	12.3495776492568
2337500	13.3346101498428
2338333	14.3196426504289
2339167	16.3046571828284
2340000	17.2896896834144
2340833	18.2747221840005
2341667	20.2597367164
2342500	21.244769216986
2343333	23.2298017175721
2344167	25.2148162499715
2345000	27.1998487505576
2345833	29.1848812511436
2346667	31.1698957835431
2347500	34.1549282841292
2348333	36.1399607847152
2349167	39.1249753171147
2350000	41.1100078177008
2350833	45.0950403182868
2351667	48.0800548506863
2352500	52.0650873512724
2353333	56.0501198518584
2354167	60.0351343842579
2355000	64.0201668848439
2355833	69.00519938543
2356667	73.9902139178295
2357500	79.9752464184155
2358333	84.9602789190016
2359167	90.9452934514011
2360000	97.9303259519871
2360833	104.915358452573
2361667	112.900372984973
2362500	120.885405485559
2363333	128.870437986145
2364167	137.855452518544
2365000	146.84048501913
2365833	157.825517519716
2366667	167.810532052116
2367500	178.795564552702
2368333	190.780597053288
2369167	203.765611585687
2370000	216.750644086273
2370833	230.73567658686
2371667	245.720691119259
2372500	261.705723619845
2373333	278.690756120431
2374167	295.675770652831
2375000	314.660803153417
2375833	334.645835654003
2376667	354.630850186402
2377500	376.615882686988
2378333	399.600915187574
2379167	423.585929719974
2380000	448.57096222056
2380833	475.555994721146
2381667	503.541009253545
2382500	532.526041754131
2383333	563.511074254717
2384167	595.496088787117
2385000	629.481121287703
2385833	664.466153788289
2386667	701.451168320689
2387500	740.436200821275
2388333	780.421233321861
2389167	822.40624785426
2390000	866.391280354846
2390833	912.376312855432
2391667	960.361327387832
2392500	1009.34635988842
2393333	1059.331392389
2394167	1111.3164069214
2395000	1165.30143942199
2395833	1220.28647192258
2396667	1278.27148645497
2397500	1337.25651895556
2398333	1397.24155145615
2399167	1459.22656598855
2400000	1523.21159848913
2400833	1587.19663098972
2401667	1652.18164552212
2402500	1718.1666780227
2403333	1784.15171052329
2404167	1852.13672505569
2405000	1920.12175755628
2405833	1988.10679005686
2406667	2056.09180458926
2407500	2124.07683708985
2408333	2192.06186959043
2409167	2259.04688412283
2410000	2325.03191662342
2410833	2391.016949124
2411667	2454.0019636564
2412500	2515.98699615699
2413333	2575.97202865758
2414167	2632.95704318998
2415000	2687.94207569056
2415833	2738.92710819115
2416667	2787.91212272355
2417500	2833.89715522413
2418333	2875.88218772472
2419167	2913.86720225712
2420000	2946.85223475771
2420833	2975.83726725829
2421667	3000.82228179069
2422500	3020.80731429128
2423333	3035.79234679186
2424167	3045.77736132426
2425000	3051.76239382485
2425833	3052.74742632543
2426667	3047.73244085783
2427500	3037.71747335842
2428333	3022.70250585901
2429167	3002.68752039141
2430000	2977.67255289199
2430833	2948.65758539258
2431667	2914.64259992498
2432500	2875.62763242556
2433333	2832.61266492615
2434167	2785.59767945855
2435000	2734.58271195913
2435833	2679.56774445972
2436667	2621.55275899212
2437500	2559.53779149271
2438333	2495.52282399329
2439167	2429.50783852569
2440000	2360.49287102628
2440833	2289.47790352686
2441667	2217.46291805926
2442500	2143.44795055985
2443333	2069.43298306044
2444167	1993.41799759284
2445000	1918.40303009342
2445833	1842.38806259401
2446667	1766.37307712641
2447500	1691.35810962699
2448333	1616.34314212758
2449167	1542.32815665998
2450000	1469.31318916056
2450833	1398.29822166115
2451667	1327.28323619355
2452500	1259.26826869414
2453333	1192.25330119472
2454167	1127.23831572712
2455000	1064.22334822771
2455833	1002.20838072829
2456667	943.193395260693
2457500	887.178427761279
2458333	832.163460261865
2459167	780.148474794265
2460000	730.133507294851
2460833	682.118539795437
2461667	636.103554327836
2462500	593.088586828422
2463333	552.073619329008
2464167	514.058633861408
2465000	477.043666361994
2465833	442.02869886258
2466667	410.013713394979
2467500	378.998745895565
2468333	350.983778396151
2469167	323.968792928551
2470000	298.953825429137
2470833	274.938857929723
2471667	253.923872462123
2472500	232.908904962709
2473333	213.893937463295
2474167	196.878951995694
2475000	180.86398449628
2475833	165.849016996866
2476667	151.834031529266
2477500	138.819064029852
2478333	126.804096530438
2479167	116.789111062837
2480000	106.774143563423
2480833	97.7591760640094
2481667	89.7441905964089
2482500	81.7292230969949
2483333	74.714255597581
2484167	68.6992701299804
2485000	62.6843026305665
2485833	56.6693351311526
2486667	51.654349663552
2487500	47.6393821641381
2488333	43.6244146647241
2489167	39.6094291971236
2490000	35.5944616977097
2490833	32.5794941982957
2491667	30.5645087306952
2492500	28.5495412312813
2493333	25.5345737318673
2494167	23.5195882642668
2495000	22.5046207648529
2495833	20.4896532654389
2496667	18.4746677978384
2497500	17.4597002984244
2498333	15.4447327990105
2499167	14.42974733141
2500000	12.414779831996
2500833	12.3998123325821
2501667	11.3848268649816
2502500	10.3698593655676
2503333	10.3548918661537
2504167	9.33990639855315
2505000	8.3249388991392
2505833	8.30997139972526
2506667	7.29498593212474
2507500	6.28001843271079
2508333	6.26505093329684
2509167	5.25006546569633
2510000	5.23509796628238
2510833	5.22013046686843
2511667	4.20514499926791
2512500	4.19017749985397
2513333	4.17521000044002
2514167	3.1602245328395
2515000	3.14525703342555
2515833	3.13028953401161
2516667	3.11530406641109
2517500	2.10033656699714
2518333	2.08536906758319
2519167	2.07038359998268
2520000	2.05541610056873
2520833	2.04044860115478
2521667	2.02546313355426
2522500	2.01049563414032
2523333	1.99552813472637
2524167	1.98054266712585
2525000	1.9655751677119
2525833	1.95060766829796
2526667	1.93562220069744
2527500	1.92065470128349
2528333	1.90568720186954
2529167	1.89070173426903
2530000	0.875734234855081
2530833	0.860766735441132
2531667	0.845781267840614
2532500	0.830813768426665
2533333	0.81584626901272
2534167	-0.199139198587797
2535000	-0.214106698001746
2535833	-0.229074197415692
2536667	-0.244059665016209
2537500	-0.259027164430158
2538333	-0.273994663844103
2539167	-0.288980131444625
2540000	-0.30394763085857
2540833	-0.318915130272515
2541667	-0.333900597873036
2542500	-0.348868097286982
2543333	-0.36383559670093
2544167	-0.378821064301448
2545000	0.606211436284607
2545833	0.591243936870658
2546667	0.57625846927014
2547500	0.561290969856195
2548333	0.546323470442246
2549167	0.538475344984047
2550000	0.544795106258821
2550833	0.551114867533595
2551667	0.557442215556598
2552500	-0.436238023168631
2553333	-0.429918261893857
2554167	0.576409086129146
2555000	-0.417271152596079
2555833	-0.410951391321309
2556667	-0.404624043298305
2557500	-0.398304282023531
2558333	0.608015479251243
2559167	0.614342827274246
2560000	-0.379337411450983
2560833	-0.373017650176209
2561667	-0.366690302153206
2562500	-1.36037054087843
2563333	-1.35405077960366
2564167	-1.34772343158066
2565000	-1.34140367030588
2565833	-1.33508390903111
2566667	-1.32875656100811
2567500	-1.32243679973334
2568333	-0.316117038458561
2569167	-0.309789690435558
2570000	-0.303469929160787
2570833	-0.297150167886013
2571667	-0.29082281986301
2572500	-0.284503058588236
2573333	-0.278183297313465
2574167	-0.271855949290462
2575000	-0.265536188015687
2575833	-0.259216426740913
2576667	-0.25288907871791
2577500	-0.246569317443139
2578333	0.759750443831635
2579167	0.766077791854638
2580000	0.772397553129412
2580833	0.778717314404183
2581667	0.785044662427186
2582500	-0.20863557629804
2583333	-0.202315815023265
2584167	-0.195988467000266
2585000	-0.189668705725492
2585833	-0.183348944450717
2586667	-0.177021596427714
2587500	-0.170701835152943
2588333	-0.164382073878169
2589167	-0.158054725855166
2590000	-0.151734964580392
2590833	-0.145415203305621
2591667	-0.139087855282618
2592500	-0.132768094007844
2593333	-0.126448332733069
2594167	-0.120120984710066
2595000	-0.113801223435296
2595833	-0.107481462160521
2596667	-0.101154114137518
2597500	-1.09483435286274
2598333	-1.08851459158797
2599167	-0.0821872435649702
2600000	-0.0758674822901959
2600833	-0.0695477210154216
2601667	-0.0632203729924221
2602500	-0.0569006117176478
2603333	-0.0505808504428735
2604167	-0.0442535024198705
2605000	-0.0379337411450997
2605833	-1.03161397987033
2606667	-1.02528663184732
2607500	-1.01896687057255
2608333	-1.01264710929778
2609167	-1.00631976127477
2610000	0
2610833	0.0170871794871807
2611667	0.0341948717948704
2612500	0.0512820512820511
2613333	0.0683692307692318
2614167	1.08547692307692
2615000	1.1025641025641
2615833	1.11965128205128
2616667	1.13675897435898
2617500	1.15384615384615
2618333	1.17093333333333
2619167	0.188041025641027
2620000	0.205128205128204
2620833	0.222215384615385
2621667	0.239323076923078
2622500	0.256410256410256
2623333	0.273497435897436
2624167	0.290605128205129
2625000	0.307692307692307
2625833	-0.675220512820513
2626667	-0.65811282051282
2627500	-0.641025641025642
2628333	-0.623938461538462
2629167	-0.606830769230768
2630000	-0.589743589743591
2630833	-0.57265641025641
2631667	-0.555548717948717
2632500	-0.53846153846154
2633333	-0.521374358974359
2634167	-0.504266666666666
2635000	-0.487179487179489
2635833	-0.470092307692308
2636667	-0.452984615384615
2637500	-0.435897435897434
2638333	-0.418810256410257
2639167	-0.401702564102564
2640000	-0.384615384615383
2640833	-0.367528205128206
2641667	-0.350420512820513
2642500	-0.333333333333332
2643333	-0.316246153846155
2644167	-0.299138461538462
2645000	-0.282051282051281
2645833	-0.264964102564104
2646667	-0.247856410256411
2647500	-0.23076923076923
2648333	-0.213682051282053
2649167	-0.19657435897436
2650000	-0.179487179487179
2650833	-0.162400000000002
2651667	-0.145292307692309
2652500	-0.128205128205128
2653333	-0.111117948717947
2654167	-0.0940102564102574
2655000	-1.07692307692308
2655833	-1.0598358974359
2656667	-1.04272820512821
2657500	-1.02564102564103
2658333	-1.00855384615384
2659167	-0.991446153846155
2660000	-0.974358974358974
2660833	0.0427282051282063
2661667	0.0598358974358959
2662500	0.0769230769230767
2663333	0.0940102564102574
2664167	-0.888882051282053
2665000	-0.871794871794872
2665833	-0.854707692307692
2666667	-1.8376
2667500	-1.82051282051282
2668333	-0.80342564102564
2669167	-1.78631794871795
2670000	-0.76923076923077
2670833	-0.752143589743589
2671667	-0.735035897435896
2672500	-0.717948717948719
2673333	-0.700861538461538
2674167	-0.683753846153845
2675000	-0.666666666666668
2675833	-0.649579487179487
2676667	-0.632471794871794
2677500	-0.615384615384617
2678333	-0.598297435897436
2679167	-0.581189743589743
2680000	-0.564102564102566
2680833	-0.547015384615385
2681667	-0.529907692307692
2682500	-0.512820512820511
2683333	-1.49573333333333
2684167	-1.47862564102564
2685000	-1.46153846153846
2685833	-1.44445128205128
2686667	-1.42734358974359
2687500	-1.41025641025641
2688333	-1.39316923076923
2689167	-1.37606153846154
2690000	-1.35897435897436
2690833	-1.34188717948718
2691667	-1.32477948717949
2692500	-1.30769230769231
2693333	-1.29060512820513
2694167	-1.27349743589744
2695000	-1.25641025641026
2695833	-1.23932307692308
2696667	-1.22221538461539
2697500	-1.2051282051282
2698333	-1.18804102564103
2699167	-0.170933333333334
2700000	-0.153846153846153
2700833	-0.136758974358976
2701667	-0.119651282051283
2702500	-0.102564102564102
2703333	-0.0854769230769215
2704167	-0.0683692307692318
2705000	-0.0512820512820511
2705833	-0.0341948717948704
2706667	-0.0170871794871807
2707500	0
2708333	-0.0256307692307693
2709167	-0.0512923076923073
2710000	0.923076923076923
2710833	0.897446153846154
2711667	0.871784615384616
2712500	0.846153846153847
2713333	0.820523076923077
2714167	0.794861538461539
2715000	0.76923076923077
2715833	0.743600000000001
2716667	0.717938461538463
2717500	-0.307692307692307
2718333	-0.333323076923076
2719167	-0.358984615384614
2720000	0.615384615384617
2720833	0.589753846153847
2721667	0.564092307692306
2722500	0.53846153846154
2723333	-0.487169230769229
2724167	-0.512830769230771
2725000	0.46153846153846
2725833	0.435907692307694
2726667	0.410246153846153
2727500	0.384615384615383
2728333	0.358984615384614
2729167	0.333323076923076
2730000	0.307692307692307
2730833	0.282061538461537
2731667	0.256399999999999
2732500	0.23076923076923
2733333	0.205138461538461
2734167	0.179476923076923
2735000	0.153846153846153
2735833	0.128215384615384
2736667	0.102553846153846
2737500	0.0769230769230767
2738333	0.0512923076923073
2739167	0.0256307692307693
2740000	-1
2740833	-1.02563076923077
2741667	-1.05129230769231
2742500	-1.07692307692308
2743333	-0.102553846153846
2744167	-0.128215384615384
2745000	-0.153846153846153
2745833	-0.179476923076923
2746667	-0.205138461538461
2747500	-0.23076923076923
2748333	0.743600000000001
2749167	0.717938461538463
2750000	0.692307692307693
2750833	-0.333323076923076
2751667	-0.358984615384614
2752500	0.615384615384617
2753333	0.589753846153847
2754167	0.564092307692306
2755000	1.53846153846154
2755833	1.51283076923077
2756667	0.487169230769229
2757500	0.46153846153846
2758333	0.435907692307694
2759167	0.410246153846153
2760000	0.384615384615383
2760833	0.358984615384614
2761667	0.333323076923076
2762500	0.307692307692307
2763333	-0.717938461538463
2764167	0.256399999999999
2765000	0.23076923076923
2765833	0.205138461538461
2766667	0.179476923076923
2767500	0.153846153846153
2768333	0.128215384615384
2769167	0.102553846153846
2770000	0.0769230769230767
2770833	0.0512923076923073
2771667	0.0256307692307693
2772500	1
2773333	0.974369230769231
2774167	0.948707692307693
2775000	0.923076923076923
2775833	0.897446153846154
2776667	0.871784615384616
2777500	-0.153846153846153
2778333	-0.179476923076923
2779167	0.794861538461539
2780000	0.76923076923077
2780833	-0.256399999999999
2781667	-0.282061538461537
2782500	-0.307692307692307
2783333	-0.333323076923076
2784167	0.641015384615386
2785000	-0.384615384615383
2785833	0.589753846153847
2786667	-0.435907692307694
2787500	-0.46153846153846
2788333	-0.487169230769229
2789167	-0.512830769230771
2790000	-0.53846153846154
2790833	-0.564092307692306
2791667	0.410246153846153
2792500	0.384615384615383
2793333	0.358984615384614
2794167	0.333323076923076
2795000	0.307692307692307
2795833	0.282061538461537
2796667	0.256399999999999
2797500	0.23076923076923
2798333	0.205138461538461
2799167	0.179476923076923
2800000	0.153846153846153
2800833	0.128215384615384
2801667	0.102553846153846
2802500	0.0769230769230767
2803333	0.0512923076923073
2804167	0.0256307692307693
2805000	0
2805833	-0.021358974358975
2806667	-0.0427435897435906
2807500	-0.0641025641025657
2808333	-0.0854615384615371
2809167	-0.106846153846153
2810000	-0.128205128205128
2810833	-0.149564102564103
2811667	-0.170948717948718
2812500	-0.192307692307693
2813333	-0.213666666666668
2814167	0.76494871794872
2815000	0.743589743589745
2815833	0.722230769230769
2816667	0.700846153846154
2817500	0.679487179487179
2818333	0.658128205128204
2819167	-0.363256410256412
2820000	-0.384615384615383
2820833	-0.405974358974358
2821667	-0.427358974358974
2822500	-0.448717948717949
2823333	-0.470076923076924
2824167	-0.49146153846154
2825000	-0.512820512820511
2825833	-0.534179487179486
2826667	-0.555564102564102
2827500	-0.576923076923077
2828333	-1.59828205128205
2829167	-1.61966666666667
2830000	-0.641025641025642
2830833	-0.662384615384614
2831667	-0.683769230769229
2832500	-0.705128205128204
2833333	-0.726487179487179
2834167	-0.747871794871795
2835000	-0.76923076923077
2835833	-0.790589743589745
2836667	-0.811974358974361
2837500	-0.833333333333332
2838333	-0.854692307692307
2839167	0.123923076923077
2840000	0.102564102564102
2840833	-0.918794871794873
2841667	-0.940179487179488
2842500	-0.96153846153846
2843333	-0.982897435897435
2844167	-1.00428205128205
2845000	-1.02564102564103
2845833	-1.047
2846667	-2.06838461538462
2847500	-2.08974358974359
2848333	-1.11110256410256
2849167	-1.13248717948718
2850000	-1.15384615384615
2850833	-1.17520512820513
2851667	-1.19658974358974
2852500	-1.21794871794872
2853333	-1.23930769230769
2854167	-1.26069230769231
2855000	-1.28205128205128
2855833	-1.30341025641026
2856667	-1.32479487179487
2857500	-1.34615384615385
2858333	-1.36751282051282
2859167	-1.38889743589744
2860000	-1.41025641025641
2860833	-1.43161538461538
2861667	-1.453
2862500	-1.47435897435897
2863333	-1.49571794871795
2864167	-1.51710256410257
2865000	-1.53846153846154
2865833	-0.559820512820512
2866667	-0.581205128205127
2867500	-0.602564102564102
2868333	-0.623923076923077
2869167	-0.645307692307693
2870000	-0.666666666666668
2870833	-0.688025641025639
2871667	-0.709410256410255
2872500	-0.73076923076923
2873333	-0.752128205128205
2874167	0.226487179487179
2875000	0.205128205128204
2875833	0.183769230769229
2876667	0.162384615384614
2877500	0.141025641025642
2878333	0.119666666666667
2879167	0.0982820512820517
2880000	0.0769230769230767
2880833	0.0555641025641016
2881667	0.034179487179486
2882500	1.01282051282051
2883333	-0.0085384615384605
2884167	-0.0299230769230761
2885000	-0.0512820512820511
2885833	-1.07264102564103
2886667	-1.09402564102564
2887500	-1.11538461538462
2888333	-0.136743589743588
2889167	-0.158128205128204
2890000	-0.179487179487179
2890833	-0.200846153846154
2891667	-0.222230769230769
2892500	-0.243589743589745
2893333	-0.26494871794872
2894167	-0.286333333333332
2895000	-0.307692307692307
2895833	-0.329051282051282
2896667	-0.350435897435897
2897500	-0.371794871794872
2898333	-0.393153846153847
2899167	-0.414538461538463
2900000	-0.435897435897434
2900833	-0.457256410256409
2901667	-0.478641025641025
2902500	-0.5
2903333	-0.521358974358975
2904167	-0.542743589743591
2905000	-0.564102564102566
2905833	-0.585461538461537
2906667	-0.606846153846153
2907500	0.371794871794872
2908333	0.350435897435897
2909167	0.329051282051282
2910000	0.307692307692307
2910833	0.286333333333332
2911667	0.26494871794872
2912500	0.243589743589745
2913333	0.222230769230769
2914167	0.200846153846154
2915000	-0.820512820512821
2915833	-0.841871794871796
2916667	-0.863256410256412
2917500	-0.884615384615383
2918333	-0.905974358974358
2919167	-0.927358974358974
2920000	-0.948717948717949
2920833	-0.970076923076924
2921667	-0.99146153846154
2922500	-1.01282051282051
2923333	-1.03417948717949
2924167	-1.0555641025641
2925000	-1.07692307692308
2925833	-1.09828205128205
2926667	-1.11966666666667
2927500	-1.14102564102564
2928333	-1.16238461538462
2929167	-1.18376923076923
2930000	-1.2051282051282
2930833	-1.22648717948718
2931667	-1.2478717948718
2932500	-1.26923076923077
2933333	-1.29058974358975
2934167	-0.311974358974361
2935000	-0.333333333333332
2935833	-0.354692307692307
2936667	-0.376076923076923
2937500	-0.397435897435898
2938333	-1.41879487179487
2939167	-1.44017948717949
2940000	-1.46153846153846
2940833	-1.48289743589743
2941667	-1.50428205128205
2942500	-0.525641025641026
2943333	-0.547000000000001
2944167	-0.568384615384616
2945000	-0.589743589743591
2945833	-0.611102564102563
2946667	-0.632487179487178
2947500	-0.653846153846153
2948333	-0.675205128205128
2949167	-0.696589743589744
2950000	0.282051282051281
2950833	0.26069230769231
2951667	0.23930769230769
2952500	-0.782051282051281
2953333	-0.803410256410256
2954167	-0.824794871794872
2955000	-0.846153846153847
2955833	-0.867512820512822
2956667	-0.888897435897437
2957500	-0.910256410256409
2958333	-1.93161538461538
2959167	-1.953
2960000	-1.97435897435897
2960833	-0.99571794871795
2961667	-1.01710256410257
2962500	-0.0384615384615401
2963333	-0.0598205128205116
2964167	-0.0812051282051272
2965000	-0.102564102564102
2965833	-0.123923076923077
2966667	-1.14530769230769
2967500	-1.16666666666667
2968333	-2.18802564102564
2969167	-2.20941025641026
2970000	-2.23076923076923
2970833	-2.25212820512821
2971667	-2.27351282051282
2972500	-2.2948717948718
2973333	-2.31623076923077
2974167	-2.33761538461538
2975000	-1.35897435897436
2975833	-1.38033333333333
2976667	-1.40171794871795
2977500	-1.42307692307692
2978333	-1.4444358974359
2979167	-1.46582051282051
2980000	-1.48717948717949
2980833	-1.50853846153846
2981667	-1.52992307692308
2982500	-1.55128205128205
2983333	-0.572641025641026
2984167	-0.594025641025642
2985000	-0.615384615384613
2985833	-0.636743589743588
2986667	-0.658128205128204
2987500	-0.679487179487179
2988333	-0.700846153846154
2989167	-0.722230769230769
2990000	-0.743589743589745
2990833	0.23505128205128
2991667	0.213666666666668
2992500	0.192307692307693
2993333	0.170948717948718
2994167	0.149564102564103
2995000	0.128205128205128
2995833	0.106846153846153
2996667	0.0854615384615371
2997500	0.0641025641025621
2998333	0.0427435897435906
2999167	0.021358974358975
3000000	0
