R.Time (min)	Intensity
0	0
833	-0.00854358974358971
1667	0.982902564102564
2500	0.974358974358974
3333	0.965815384615385
4167	-0.0427384615384615
5000	-0.0512820512820513
5833	-0.059825641025641
6667	-0.0683794871794872
7500	-0.0769230769230769
8333	-0.0854666666666667
9167	-0.0940205128205128
10000	-0.102564102564103
10833	0.888892307692308
11667	0.880338461538462
12500	0.871794871794872
13333	0.863251282051282
14167	0.854697435897436
15000	0.846153846153846
15833	0.837610256410256
16667	0.82905641025641
17500	0.82051282051282
18333	0.811969230769231
19167	1.80341538461538
20000	1.79487179487179
20833	1.78632820512821
21667	1.77777435897436
22500	1.76923076923077
23333	1.76068717948718
24167	1.75213333333333
25000	1.74358974358974
25833	1.73504615384615
26667	2.72649230769231
27500	2.71794871794872
28333	2.70940512820513
29167	2.70085128205128
30000	2.69230769230769
30833	3.6837641025641
31667	3.67521025641026
32500	3.66666666666667
33333	3.65812307692308
34167	3.64956923076923
35000	3.64102564102564
35833	3.63248205128205
36667	3.62392820512821
37500	2.61538461538462
38333	2.60684102564103
39167	2.59828717948718
40000	1.58974358974359
40833	1.5812
41667	0.572646153846154
42500	0.564102564102564
43333	0.555558974358974
44167	0.547005128205128
45000	-0.461538461538462
45833	-0.470082051282051
46667	-0.478635897435898
47500	0.512820512820513
48333	0.504276923076923
49167	0.495723076923077
50000	0.487179487179487
50833	0.478635897435897
51667	0.470082051282051
52500	0.461538461538462
53333	0.452994871794872
54167	1.44444102564103
55000	1.43589743589744
55833	1.42735384615385
56667	1.4188
57500	1.41025641025641
58333	1.40171282051282
59167	2.39315897435897
60000	2.38461538461538
60833	2.37607179487179
61667	1.36751794871795
62500	2.35897435897436
63333	1.35043076923077
64167	2.34187692307692
65000	2.33333333333333
65833	2.32478974358974
66667	2.3162358974359
67500	2.30769230769231
68333	2.29914871794872
69167	2.29059487179487
70000	1.28205128205128
70833	1.27350769230769
71667	1.26495384615385
72500	1.25641025641026
73333	1.24786666666667
74167	1.23931282051282
75000	1.23076923076923
75833	1.22222564102564
76667	1.21367179487179
77500	1.20512820512821
78333	2.19658461538462
79167	1.18803076923077
80000	1.17948717948718
80833	1.17094358974359
81667	1.16238974358974
82500	1.15384615384615
83333	1.14530256410256
84167	0.136748717948718
85000	0.128205128205128
85833	0.119661538461538
86667	0.111107692307692
87500	1.1025641025641
88333	1.09402051282051
89167	1.08546666666667
90000	1.07692307692308
90833	1.06837948717949
91667	1.05982564102564
92500	1.05128205128205
93333	1.04273846153846
94167	1.03418461538462
95000	1.02564102564103
95833	1.01709743589744
96667	0.00854358974358971
97500	0
98333	-0.0256307692307692
99167	-0.0512923076923077
100000	-0.0769230769230769
100833	-0.102553846153846
101667	-0.128215384615385
102500	-0.153846153846154
103333	-0.179476923076923
104167	-0.205138461538462
105000	-0.230769230769231
105833	-0.2564
106667	-0.282061538461538
107500	-0.307692307692308
108333	-0.333323076923077
109167	0.641015384615385
110000	0.615384615384615
110833	0.589753846153846
111667	1.56409230769231
112500	0.538461538461538
113333	0.512830769230769
114167	0.487169230769231
115000	0.461538461538462
115833	0.435907692307692
116667	0.410246153846154
117500	0.384615384615385
118333	0.358984615384615
119167	0.333323076923077
120000	0.307692307692308
120833	0.282061538461538
121667	0.2564
122500	0.230769230769231
123333	0.205138461538461
124167	0.179476923076923
125000	0.153846153846154
125833	0.128215384615385
126667	0.102553846153846
127500	0.0769230769230769
128333	0.0512923076923076
129167	0.0256307692307692
130000	0
130833	-0.0256307692307691
131667	-0.0512923076923077
132500	-0.0769230769230769
133333	-0.102553846153846
134167	-0.128215384615385
135000	0.846153846153846
135833	0.820523076923077
136667	0.794861538461539
137500	0.769230769230769
138333	0.7436
139167	0.717938461538462
140000	0.692307692307692
140833	0.666676923076923
141667	0.641015384615385
142500	0.615384615384615
143333	0.589753846153846
144167	0.564092307692308
145000	0.538461538461539
145833	0.512830769230769
146667	0.487169230769231
147500	0.461538461538461
148333	0.435907692307692
149167	0.410246153846154
150000	0.384615384615385
150833	0.358984615384615
151667	0.333323076923077
152500	0.307692307692308
153333	0.282061538461538
154167	0.2564
155000	0.230769230769231
155833	0.205138461538461
156667	1.17947692307692
157500	1.15384615384615
158333	1.12821538461538
159167	1.10255384615385
160000	1.07692307692308
160833	0.0512923076923077
161667	0.0256307692307691
162500	0
163333	-0.0256307692307693
164167	-0.0512923076923077
165000	-0.0769230769230771
165833	-0.102553846153846
166667	-0.128215384615384
167500	-0.153846153846154
168333	-1.17947692307692
169167	-1.20513846153846
170000	-1.23076923076923
170833	-1.2564
171667	-0.282061538461539
172500	-0.307692307692307
173333	-0.333323076923077
174167	-0.358984615384615
175000	-0.384615384615385
175833	-0.410246153846154
176667	0.564092307692308
177500	0.538461538461538
178333	0.512830769230769
179167	0.487169230769231
180000	0.461538461538462
180833	0.435907692307692
181667	0.410246153846154
182500	0.384615384615385
183333	0.358984615384615
184167	0.333323076923077
185000	0.307692307692307
185833	0.282061538461539
186667	0.2564
187500	0.230769230769231
188333	0.205138461538461
189167	0.179476923076923
190000	0.153846153846154
190833	0.128215384615384
191667	0.102553846153846
192500	-0.923076923076923
193333	-0.948707692307692
194167	-0.974369230769231
195000	0
195833	-1.00854358974359
196667	-1.01709743589744
197500	-1.02564102564103
198333	-1.03418461538462
199167	-0.0427384615384616
200000	-1.05128205128205
200833	-1.05982564102564
201667	-1.06837948717949
202500	-1.07692307692308
203333	-1.08546666666667
204167	-1.09402051282051
205000	-1.1025641025641
205833	-1.11110769230769
206667	-1.11966153846154
207500	-1.12820512820513
208333	-1.13674871794872
209167	-1.14530256410256
210000	-1.15384615384615
210833	-1.16238974358974
211667	-1.17094358974359
212500	-1.17948717948718
213333	-1.18803076923077
214167	-1.19658461538462
215000	-1.20512820512821
215833	-1.21367179487179
216667	-0.222225641025641
217500	-0.230769230769231
218333	-0.23931282051282
219167	-0.247866666666667
220000	-0.256410256410256
220833	-0.264953846153846
221667	-0.273507692307692
222500	-0.282051282051282
223333	-0.290594871794872
224167	-0.299148717948718
225000	-0.307692307692307
225833	-0.316235897435897
226667	0.675210256410256
227500	0.666666666666667
228333	-0.341876923076923
229167	-0.350430769230769
230000	-0.358974358974359
230833	-1.36751794871795
231667	-1.37607179487179
232500	-1.38461538461538
233333	-1.39315897435897
234167	-1.40171282051282
235000	-1.41025641025641
235833	-1.4188
236667	-1.42735384615385
237500	-1.43589743589744
238333	-1.44444102564103
239167	-1.45299487179487
240000	-0.461538461538462
240833	-0.470082051282051
241667	-0.478635897435897
242500	-0.487179487179487
243333	-0.495723076923077
244167	-0.504276923076923
245000	-1.51282051282051
245833	-1.5213641025641
246667	-1.52991794871795
247500	-2.53846153846154
248333	-1.54700512820513
249167	-1.55555897435897
250000	-1.56410256410256
250833	-1.57264615384615
251667	-1.5812
252500	-2.58974358974359
253333	-2.59828717948718
254167	-2.60684102564103
255000	-2.61538461538462
255833	-1.62392820512821
256667	-1.63248205128205
257500	-1.64102564102564
258333	-1.64956923076923
259167	-1.65812307692308
260000	-1.66666666666667
260833	-0.675210256410256
261667	-0.683764102564103
262500	-0.692307692307693
263333	-0.700851282051282
264167	-0.709405128205128
265000	-0.717948717948718
265833	-1.72649230769231
266667	-0.735046153846154
267500	-0.743589743589744
268333	-0.752133333333333
269167	-0.76068717948718
270000	-0.769230769230769
270833	-0.777774358974359
271667	-0.786328205128205
272500	0.205128205128205
273333	0.196584615384615
274167	0.188030769230769
275000	0.17948717948718
275833	0.17094358974359
276667	0.162389743589744
277500	0.153846153846154
278333	0.145302564102564
279167	0.136748717948718
280000	0.128205128205128
280833	0.119661538461538
281667	0.111107692307693
282500	0.102564102564103
283333	0.0940205128205127
284167	0.0854666666666666
285000	0.0769230769230767
285833	0.0683794871794872
286667	0.059825641025641
287500	0.0512820512820511
288333	0.0427384615384616
289167	0.0341846153846155
290000	0.0256410256410256
290833	0.0170974358974361
291667	0.00854358974358949
292500	0
293333	0
294167	-1
295000	-1
295833	-1
296667	-1
297500	-2
298333	-2
299167	-1
300000	-1
300833	-1
301667	-1
302500	-1
303333	-1
304167	-1
305000	-1
305833	0
306667	0
307500	-1
308333	-1
309167	-1
310000	-1
310833	-1
311667	-1
312500	-1
313333	-1
314167	-2
315000	-2
315833	-1
316667	-1
317500	-1
318333	-1
319167	-1
320000	0
320833	0
321667	0
322500	-1
323333	-1
324167	-1
325000	-1
325833	-1
326667	-1
327500	-1
328333	-1
329167	-1
330000	-1
330833	-1
331667	-2
332500	-2
333333	-2
334167	-2
335000	-1
335833	-1
336667	-1
337500	-1
338333	-1
339167	-1
340000	-1
340833	0
341667	-1
342500	-1
343333	-1
344167	0
345000	0
345833	0
346667	0
347500	0
348333	0
349167	0
350000	0
350833	0
351667	0
352500	-1
353333	-1
354167	-1
355000	-1
355833	-1
356667	-1
357500	0
358333	-1
359167	-1
360000	-1
360833	-1
361667	0
362500	0
363333	0
364167	0
365000	0
365833	0
366667	-1
367500	-1
368333	-1
369167	-1
370000	-1
370833	0
371667	0
372500	0
373333	0
374167	0
375000	0
375833	0
376667	0
377500	0
378333	0
379167	0
380000	0
380833	0
381667	0
382500	0
383333	-1
384167	0
385000	0
385833	0
386667	0
387500	0
388333	0
389167	0
390000	0
390833	0
391667	0
392500	0
393333	0
394167	-1
395000	0
395833	0
396667	0
397500	0
398333	0
399167	-1
400000	-1
400833	-1
401667	0
402500	0
403333	0
404167	-1
405000	-1
405833	-1
406667	-1
407500	-1
408333	0
409167	0
410000	0
410833	0
411667	0
412500	0
413333	0
414167	-1
415000	-1
415833	-1
416667	-1
417500	-1
418333	-1
419167	-1
420000	0
420833	-1
421667	-1
422500	-1
423333	-1
424167	-1
425000	-2
425833	-1
426667	-1
427500	-1
428333	-1
429167	-1
430000	-1
430833	-1
431667	0
432500	0
433333	0
434167	0
435000	-1
435833	-1
436667	-1
437500	-1
438333	0
439167	0
440000	0
440833	0
441667	0
442500	0
443333	0
444167	0
445000	0
445833	-1
446667	0
447500	0
448333	0
449167	0
450000	0
450833	0
451667	0
452500	0
453333	0
454167	0
455000	1
455833	1
456667	0
457500	0
458333	0
459167	0
460000	0
460833	0
461667	0
462500	0
463333	0
464167	0
465000	0
465833	0
466667	0
467500	0
468333	0
469167	0
470000	0
470833	0
471667	0
472500	0
473333	0
474167	0
475000	0
475833	0
476667	0
477500	1
478333	1
479167	0
480000	0
480833	0
481667	0
482500	0
483333	0
484167	0
485000	0
485833	1
486667	0
487500	0
488333	1.00854358974359
489167	1.01709743589744
490000	1.02564102564103
490833	1.03418461538462
491667	1.04273846153846
492500	1.05128205128205
493333	0.059825641025641
494167	0.0683794871794872
495000	-0.923076923076923
495833	-0.914533333333333
496667	-0.905979487179487
497500	-0.897435897435897
498333	0.111107692307692
499167	1.11966153846154
500000	1.12820512820513
500833	2.13674871794872
501667	2.14530256410256
502500	2.15384615384615
503333	2.16238974358974
504167	1.17094358974359
505000	1.17948717948718
505833	1.18803076923077
506667	0.196584615384615
507500	0.205128205128205
508333	0.213671794871795
509167	0.222225641025641
510000	1.23076923076923
510833	1.23931282051282
511667	1.24786666666667
512500	1.25641025641026
513333	1.26495384615385
514167	1.27350769230769
515000	1.28205128205128
515833	1.29059487179487
516667	1.29914871794872
517500	1.30769230769231
518333	1.3162358974359
519167	1.32478974358974
520000	1.33333333333333
520833	1.34187692307692
521667	1.35043076923077
522500	1.35897435897436
523333	1.36751794871795
524167	1.37607179487179
525000	1.38461538461538
525833	1.39315897435897
526667	1.40171282051282
527500	1.41025641025641
528333	1.4188
529167	1.42735384615385
530000	1.43589743589744
530833	1.44444102564103
531667	1.45299487179487
532500	1.46153846153846
533333	1.47008205128205
534167	1.4786358974359
535000	1.48717948717949
535833	1.49572307692308
536667	1.50427692307692
537500	1.51282051282051
538333	1.5213641025641
539167	1.52991794871795
540000	1.53846153846154
540833	1.54700512820513
541667	1.55555897435897
542500	1.56410256410256
543333	0.572646153846154
544167	0.5812
545000	0.58974358974359
545833	0.598287179487179
546667	0.606841025641025
547500	1.61538461538462
548333	0.623928205128205
549167	0.632482051282051
550000	0.641025641025641
550833	0.649569230769231
551667	0.658123076923077
552500	0.666666666666667
553333	0.675210256410256
554167	0.683764102564103
555000	1.69230769230769
555833	1.70085128205128
556667	0.709405128205128
557500	1.71794871794872
558333	1.72649230769231
559167	0.735046153846154
560000	1.74358974358974
560833	0.752133333333333
561667	1.76068717948718
562500	1.76923076923077
563333	1.77777435897436
564167	1.78632820512821
565000	1.79487179487179
565833	0.803415384615385
566667	0.811969230769231
567500	0.82051282051282
568333	1.82905641025641
569167	1.83761025641026
570000	1.84615384615385
570833	1.85469743589744
571667	1.86325128205128
572500	1.87179487179487
573333	0.880338461538462
574167	0.888892307692307
575000	0.897435897435897
575833	0.905979487179487
576667	0.914533333333333
577500	1.92307692307692
578333	1.93162051282051
579167	1.94017435897436
580000	1.94871794871795
580833	1.95726153846154
581667	0.965815384615385
582500	0.974358974358974
583333	0.982902564102564
584167	-0.00854358974358949
585000	0
585833	0
586667	0
587500	0
588333	1
589167	1
590000	1
590833	2
591667	2
592500	2
593333	2
594167	2
595000	3
595833	3
596667	3
597500	2
598333	2
599167	2
600000	2
600833	2
601667	2
602500	2
603333	2
604167	1
605000	1
605833	1
606667	0
607500	0
608333	0
609167	-1
610000	-1
610833	-2
611667	-2
612500	-2
613333	-3
614167	-4
615000	-6
615833	-10
616667	-16
617500	-24
618333	-37
619167	-57
620000	-86
620833	-129
621667	-191
622500	-279
623333	-404
624167	-575
625000	-807
625833	-1115
626667	-1514
627500	-2017
628333	-2634
629167	-3372
630000	-4226
630833	-5184
631667	-6226
632500	-7320
633333	-8429
634167	-9509
635000	-10519
635833	-11416
636667	-12165
637500	-12739
638333	-13119
639167	-13298
640000	-13278
640833	-13069
641667	-12689
642500	-12161
643333	-11513
644167	-10772
645000	-9967
645833	-9126
646667	-8272
647500	-7428
648333	-6609
649167	-5832
650000	-5106
650833	-4436
651667	-3828
652500	-3282
653333	-2798
654167	-2372
655000	-2001
655833	-1682
656667	-1408
657500	-1176
658333	-979
659167	-814
660000	-676
660833	-561
661667	-466
662500	-387
663333	-322
664167	-269
665000	-225
665833	-189
666667	-159
667500	-135
668333	-114
669167	-98
670000	-84
670833	-72
671667	-63
672500	-55
673333	-48
674167	-43
675000	-38
675833	-34
676667	-31
677500	-28
678333	-26
679167	-23
680000	-21
680833	-20
681667	-18
682500	-17
683333	-16
684167	-15
685000	-13
685833	-12
686667	-11
687500	-11
688333	-10
689167	-10
690000	-10
690833	-9
691667	-9
692500	-8
693333	-7
694167	-7
695000	-6
695833	-6
696667	-6
697500	-6
698333	-5
699167	-5
700000	-5
700833	-5
701667	-5
702500	-4
703333	-4
704167	-4
705000	-4
705833	-4
706667	-4
707500	-4
708333	-4
709167	-4
710000	-4
710833	-3
711667	-3
712500	-3
713333	-3
714167	-2
715000	-2
715833	-2
716667	-2
717500	-1
718333	-1
719167	-1
720000	-1
720833	-1
721667	-1
722500	-1
723333	0
724167	0
725000	0
725833	0
726667	-1
727500	-1
728333	-1
729167	-1
730000	0
730833	-0.0256307692307693
731667	-0.0512923076923077
732500	-0.0769230769230771
733333	-0.102553846153846
734167	-0.128215384615385
735000	-0.153846153846154
735833	-0.179476923076923
736667	-0.205138461538461
737500	-0.230769230769231
738333	-0.2564
739167	-0.282061538461539
740000	-0.307692307692307
740833	-0.333323076923077
741667	-0.358984615384615
742500	-0.384615384615385
743333	-0.410246153846154
744167	-0.435907692307692
745000	0.538461538461538
745833	0.512830769230769
746667	0.487169230769231
747500	0.461538461538462
748333	0.435907692307692
749167	0.410246153846154
750000	0.384615384615385
750833	1.35898461538462
751667	1.33332307692308
752500	1.30769230769231
753333	1.28206153846154
754167	1.2564
755000	1.23076923076923
755833	0.205138461538461
756667	0.179476923076923
757500	0.153846153846154
758333	1.12821538461538
759167	1.10255384615385
760000	1.07692307692308
760833	1.05129230769231
761667	1.02563076923077
762500	0
763333	-0.0256307692307693
764167	-0.0512923076923073
765000	-0.0769230769230767
765833	-0.102553846153846
766667	-0.128215384615385
767500	-0.153846153846153
768333	0.820523076923077
769167	0.794861538461539
770000	0.769230769230769
770833	1.7436
771667	0.717938461538462
772500	0.692307692307693
773333	0.666676923076923
774167	0.641015384615384
775000	0.615384615384615
775833	0.589753846153846
776667	0.564092307692308
777500	0.538461538461538
778333	0.512830769230769
779167	0.487169230769231
780000	-0.538461538461538
780833	0.435907692307692
781667	0.410246153846154
782500	0.384615384615385
783333	0.358984615384616
784167	0.333323076923077
785000	0.307692307692307
785833	0.282061538461538
786667	0.2564
787500	-0.769230769230769
788333	0.205138461538461
789167	0.179476923076923
790000	1.15384615384615
790833	0.128215384615385
791667	0.102553846153846
792500	0.0769230769230767
793333	0.0512923076923073
794167	1.02563076923077
795000	1
795833	0.974369230769231
796667	0.948707692307693
797500	0.923076923076923
798333	-0.102553846153846
799167	-0.128215384615384
800000	-0.153846153846153
800833	-0.179476923076923
801667	0.794861538461539
802500	0.769230769230769
803333	0.7436
804167	0.717938461538461
805000	0.692307692307693
805833	0.666676923076923
806667	0.641015384615384
807500	0.615384615384615
808333	0.589753846153846
809167	0.564092307692308
810000	0.538461538461538
810833	0.512830769230769
811667	0.487169230769231
812500	0.461538461538462
813333	0.435907692307692
814167	0.410246153846154
815000	0.384615384615385
815833	0.358984615384616
816667	0.333323076923077
817500	1.30769230769231
818333	1.28206153846154
819167	0.2564
820000	0.230769230769231
820833	0.205138461538461
821667	0.179476923076923
822500	0.153846153846153
823333	0.128215384615384
824167	-0.897446153846154
825000	0.0769230769230767
825833	0.0512923076923073
826667	0.0256307692307693
827500	0
828333	-0.00684022600245715
829167	-0.0136886635607398
830000	-0.0205288895631979
830833	-0.027369115565655
831667	-0.0342175531239377
832500	0.958942220873605
833333	0.952101994871147
834167	0.945253557312864
835000	0.938413331310407
835833	0.93157310530795
836667	0.924724667749667
837500	0.917884441747209
838333	-0.0889557842552478
839167	-0.0958042218135304
840000	-0.102644447815988
840833	-0.109484673818446
841667	-0.116333111376728
842500	-0.123173337379185
843333	-0.130013563381643
844167	-0.136862000939926
845000	-0.143702226942383
845833	-0.15054245294484
846667	-0.157390890503123
847500	-0.164231116505581
848333	-0.171071342508038
849167	-1.17791978006632
850000	-1.18476000606878
850833	-1.19160023207124
851667	-1.19844866962952
852500	-1.20528889563198
853333	-1.21212912163443
854167	-1.21897755919272
855000	-1.22581778519517
855833	-1.23265801119763
856667	-0.239506448755914
857500	-0.246346674758372
858333	-0.253186900760829
859167	-0.260035338319112
860000	0.733124435678431
860833	-0.273715790324027
861667	-0.28056422788231
862500	-0.287404453884767
863333	-1.29424467988722
864167	-1.30109311744551
865000	-1.30793334344796
865833	-1.31477356945042
866667	-1.3216220070087
867500	-1.32846223301116
868333	-1.33530245901362
869167	-1.3421508965719
870000	-1.34899112257436
870833	-1.35583134857682
871667	-1.3626797861351
872500	-1.36952001213756
873333	-1.37636023814001
874167	-2.3832086756983
875000	-2.39004890170076
875833	-2.39688912770321
876667	-1.4037375652615
877500	-1.41057779126395
878333	-1.41741801726641
879167	-0.424266454824693
880000	-0.43110668082715
880833	-0.437946906829607
881667	-0.44479534438789
882500	0.548364429609652
883333	0.541524203607195
884167	0.534675766048912
885000	1.52783554004646
885833	1.520995314044
886667	2.51414687648571
887500	3.50730665048326
888333	4.5004664244808
889167	6.49361798692252
890000	8.48677776092006
890833	10.4799375349176
891667	13.4730890973593
892500	17.4662488713569
893333	21.4594086453544
894167	26.4525602077961
895000	32.4457199817937
895833	38.4388797557912
896667	45.4320313182329
897500	54.4251910922305
898333	63.418350866228
899167	74.4115024286697
900000	86.4046622026673
900833	98.3978219766648
901667	111.390973539107
902500	125.384133313104
903333	138.377293087102
904167	152.370444649543
905000	165.363604423541
905833	177.356764197538
906667	188.34991575998
907500	198.343075533978
908333	207.336235307975
909167	214.329386870417
910000	219.322546644414
910833	222.315706418412
911667	223.308857980854
912500	222.302017754851
913333	218.295177528849
914167	213.288329091291
915000	206.281488865288
915833	198.274648639286
916667	189.267800201727
917500	178.260959975725
918333	167.254119749722
919167	156.247271312164
920000	144.240431086162
920833	132.233590860159
921667	120.226742422601
922500	109.219902196599
923333	98.213061970596
924167	88.2062135330378
925000	78.1993733070353
925833	69.1925330810328
926667	61.1856846434746
927500	53.1788444174721
928333	47.1720041914696
929167	41.1651557539114
930000	35.1583155279089
930833	30.1514753019064
931667	26.1446268643482
932500	23.1377866383457
933333	20.1309464123432
934167	17.124097974785
935000	15.1172577487825
935833	13.11041752278
936667	11.1035690852218
937500	9.0967288592193
938333	7.08988863321685
939167	6.08304019565856
940000	5.07619996965611
940833	4.06935974365365
941667	4.06251130609537
942500	3.05567108009291
943333	3.04883085409045
944167	3.04198241653217
945000	2.03514219052971
945833	2.02830196452725
946667	2.02145352696897
947500	2.01461330096651
948333	1.00777307496406
949167	1.00092463740577
950000	0.994084411403317
950833	0.98724418540086
951667	0.980395747842577
952500	0.973555521840119
953333	0.966715295837662
954167	-0.040133141720621
955000	-0.046973367723079
955833	-0.0538135937255362
956667	-0.0606620312838189
957500	-0.0675022572862769
958333	-1.07434248328873
959167	-1.08119092084702
960000	-1.08803114684947
960833	-1.09487137285193
961667	-1.08659503223479
962500	-1.07171604119618
963333	-1.05683705015758
964167	-1.04194019718495
965000	-1.02706120614634
965833	-1.01218221510774
966667	-0.997285362135108
967500	-0.982406371096501
968333	-0.967527380057894
969167	-0.952630527085267
970000	-0.93775153604666
970833	-0.922872545008053
971667	-0.907975692035426
972500	-0.893096700996819
973333	-0.878217709958212
974167	-0.863320856985585
975000	-0.848441865946978
975833	-0.833562874908371
976667	0.181333978064256
977500	0.196212969102863
978333	0.21109196014147
979167	0.225988813114097
980000	0.240867804152704
980833	0.25574679519131
981667	0.270643648163937
982500	-0.714477360797456
983333	-0.699598369758848
984167	-0.684701516786221
985000	-0.669822525747614
985833	-0.654943534709007
986667	-0.64004668173638
987500	0.374832309302227
988333	0.389711300340833
989167	0.40460815331346
990000	-0.580512855647933
990833	-0.565633864609326
991667	0.449262988363301
992500	0.464141979401909
993333	1.47902097044052
994167	1.49391782341314
995000	1.50879681445175
995833	1.52367580549036
996667	1.53857265846298
997500	1.55345164950159
998333	1.5683306405402
999167	0.583227493512824
1000000	0.598106484551431
1000833	0.612985475590039
1001667	0.627882328562666
1002500	0.642761319601273
1003333	0.657640310639879
1004167	0.672537163612507
1005000	0.687416154651113
1005833	0.70229514568972
1006667	0.717191998662347
1007500	-0.267929010299046
1008333	-0.253050019260439
1009167	-0.238153166287812
1010000	-0.223274175249204
1010833	-0.208395184210597
1011667	-0.193498331237971
1012500	-0.178619340199364
1013333	-0.163740349160757
1014167	-0.14884349618813
1015000	-0.133964505149523
1015833	-0.119085514110916
1016667	-0.104188661138289
1017500	-1.08930967009968
1018333	-1.07443067906108
1019167	-1.05953382608845
1020000	-1.04465483504984
1020833	-0.0297758440112341
1021667	-0.0148789910386071
1022500	0
1023333	-0.0170871794871799
1024167	-0.0341948717948721
1025000	-0.0512820512820511
1025833	-0.068369230769231
1026667	-0.0854769230769232
1027500	-0.102564102564102
1028333	0.880348717948718
1029167	0.863241025641026
1030000	-0.153846153846154
1030833	-0.170933333333333
1031667	-0.188041025641025
1032500	-0.205128205128205
1033333	-0.222215384615384
1034167	-0.239323076923077
1035000	-0.256410256410256
1035833	-0.273497435897436
1036667	-0.290605128205129
1037500	-0.307692307692307
1038333	-0.324779487179487
1039167	-0.34188717948718
1040000	-0.358974358974359
1040833	-0.376061538461538
1041667	-0.393169230769231
1042500	-0.410256410256411
1043333	-1.42734358974359
1044167	-1.44445128205128
1045000	-1.46153846153846
1045833	-1.47862564102564
1046667	-1.49573333333333
1047500	-0.512820512820513
1048333	-0.529907692307693
1049167	-0.547015384615385
1050000	-0.564102564102564
1050833	-0.581189743589744
1051667	0.401702564102564
1052500	0.384615384615385
1053333	0.367528205128205
1054167	0.350420512820513
1055000	-0.666666666666667
1055833	-0.683753846153846
1056667	-0.700861538461538
1057500	0.282051282051282
1058333	0.264964102564102
1059167	0.247856410256411
1060000	0.230769230769231
1060833	-0.786317948717949
1061667	-0.803425641025641
1062500	0.17948717948718
1063333	0.1624
1064167	0.145292307692308
1065000	0.128205128205128
1065833	0.111117948717949
1066667	0.0940102564102565
1067500	-0.923076923076923
1068333	0.0598358974358977
1069167	0.0427282051282054
1070000	0.0256410256410256
1070833	0.00855384615384658
1071667	-0.00855384615384658
1072500	-0.0256410256410256
1073333	-0.0427282051282054
1074167	-0.0598358974358977
1075000	-0.0769230769230767
1075833	-0.0940102564102565
1076667	-0.111117948717949
1077500	0.871794871794872
1078333	0.854707692307692
1079167	0.8376
1080000	0.82051282051282
1080833	-0.196574358974359
1081667	-0.213682051282051
1082500	0.769230769230769
1083333	0.752143589743589
1084167	0.735035897435898
1085000	0.717948717948718
1085833	0.700861538461538
1086667	-0.316246153846154
1087500	-0.333333333333333
1088333	-0.350420512820513
1089167	-0.367528205128205
1090000	-1.38461538461539
1090833	-1.40170256410256
1091667	-0.418810256410256
1092500	-0.435897435897436
1093333	-0.452984615384615
1094167	-0.470092307692307
1095000	-0.487179487179487
1095833	-0.504266666666666
1096667	0.478625641025641
1097500	0.461538461538462
1098333	0.444451282051282
1099167	0.42734358974359
1100000	-0.589743589743589
1100833	-0.606830769230769
1101667	-0.623938461538462
1102500	-0.641025641025641
1103333	-0.65811282051282
1104167	-0.675220512820513
1105000	0.307692307692307
1105833	0.290605128205129
1106667	1.27349743589744
1107500	1.25641025641026
1108333	1.23932307692308
1109167	0.222215384615385
1110000	0.205128205128205
1110833	0.188041025641025
1111667	0.170933333333333
1112500	0.153846153846153
1113333	0.136758974358974
1114167	0.119651282051282
1115000	0.102564102564102
1115833	1.08547692307692
1116667	1.06836923076923
1117500	0.0512820512820511
1118333	0.0341948717948721
1119167	0.017087179487179
1120000	0
1120833	0
1121667	0
1122500	0
1123333	0
1124167	0
1125000	0
1125833	0
1126667	0
1127500	0
1128333	0
1129167	0
1130000	0
1130833	0
1131667	0
1132500	0
1133333	1
1134167	1
1135000	1
1135833	1
1136667	1
1137500	1
1138333	1
1139167	1
1140000	2
1140833	2
1141667	2
1142500	2
1143333	2
1144167	2
1145000	2
1145833	1
1146667	1
1147500	1
1148333	1
1149167	1
1150000	1
1150833	1
1151667	1
1152500	1
1153333	1
1154167	1
1155000	1
1155833	0
1156667	0
1157500	0
1158333	0
1159167	1
1160000	1
1160833	0
1161667	1
1162500	1
1163333	0
1164167	1
1165000	1
1165833	1
1166667	1
1167500	1
1168333	1
1169167	1
1170000	2
1170833	2
1171667	2
1172500	2
1173333	2
1174167	2
1175000	2
1175833	1
1176667	1
1177500	1
1178333	1
1179167	1
1180000	1
1180833	1
1181667	1
1182500	1
1183333	1
1184167	1
1185000	1
1185833	1
1186667	1
1187500	1
1188333	1
1189167	1
1190000	1
1190833	1
1191667	1
1192500	1
1193333	1
1194167	2
1195000	2
1195833	2
1196667	2
1197500	2
1198333	2
1199167	2
1200000	2
1200833	2
1201667	2
1202500	2
1203333	2
1204167	2
1205000	2
1205833	1
1206667	1
1207500	1
1208333	2
1209167	2
1210000	2
1210833	2
1211667	1
1212500	1
1213333	1
1214167	1
1215000	1
1215833	1
1216667	1
1217500	0
1218333	-0.00854358974359037
1219167	-0.0170974358974352
1220000	-1.02564102564103
1220833	-1.03418461538462
1221667	-0.0427384615384607
1222500	-0.0512820512820511
1223333	-0.0598256410256415
1224167	-0.0683794871794881
1225000	0.923076923076923
1225833	0.914533333333333
1226667	-0.0940205128205136
1227500	-0.102564102564102
1228333	-0.111107692307693
1229167	-0.119661538461539
1230000	-0.128205128205128
1230833	-0.136748717948718
1231667	-0.145302564102565
1232500	-0.153846153846153
1233333	-0.162389743589744
1234167	-0.17094358974359
1235000	-0.179487179487179
1235833	-0.188030769230769
1236667	-0.196584615384616
1237500	-0.205128205128204
1238333	-0.213671794871795
1239167	0.777774358974359
1240000	0.76923076923077
1240833	0.76068717948718
1241667	1.75213333333333
1242500	1.74358974358974
1243333	1.73504615384615
1244167	1.72649230769231
1245000	0.717948717948717
1245833	0.709405128205129
1246667	0.700851282051282
1247500	0.692307692307692
1248333	0.683764102564103
1249167	-0.324789743589744
1250000	-0.333333333333334
1250833	-0.341876923076923
1251667	-0.350430769230769
1252500	-0.358974358974359
1253333	-0.367517948717948
1254167	-0.376071794871795
1255000	-0.384615384615385
1255833	-0.393158974358974
1256667	-0.40171282051282
1257500	-0.410256410256411
1258333	-1.4188
1259167	-0.427353846153846
1260000	-0.435897435897436
1260833	-1.44444102564103
1261667	-0.452994871794871
1262500	-0.461538461538462
1263333	-0.470082051282052
1264167	-0.478635897435897
1265000	-0.487179487179487
1265833	0.504276923076922
1266667	0.495723076923078
1267500	0.487179487179487
1268333	0.478635897435897
1269167	0.470082051282052
1270000	0.461538461538462
1270833	0.452994871794871
1271667	0.444441025641027
1272500	0.435897435897436
1273333	0.427353846153846
1274167	0.418799999999999
1275000	0.410256410256411
1275833	0.40171282051282
1276667	0.393158974358974
1277500	0.384615384615385
1278333	0.376071794871795
1279167	0.367517948717948
1280000	0.358974358974359
1280833	0.350430769230769
1281667	0.341876923076923
1282500	0.333333333333334
1283333	0.324789743589744
1284167	0.316235897435897
1285000	0.307692307692308
1285833	0.299148717948718
1286667	1.29059487179487
1287500	1.28205128205128
1288333	1.27350769230769
1289167	1.26495384615385
1290000	1.25641025641026
1290833	2.24786666666667
1291667	2.23931282051282
1292500	2.23076923076923
1293333	1.22222564102564
1294167	1.21367179487179
1295000	1.2051282051282
1295833	1.19658461538462
1296667	0.188030769230769
1297500	0.179487179487179
1298333	0.17094358974359
1299167	0.162389743589744
1300000	0.153846153846153
1300833	0.145302564102565
1301667	0.136748717948718
1302500	0.128205128205128
1303333	0.119661538461539
1304167	0.111107692307693
1305000	0.102564102564102
1305833	-0.905979487179486
1306667	-0.914533333333333
1307500	0.0769230769230767
1308333	0.0683794871794881
1309167	0.0598256410256415
1310000	0.0512820512820511
1310833	1.04273846153846
1311667	1.03418461538462
1312500	0.0256410256410256
1313333	0.0170974358974352
1314167	0.00854358974359037
1315000	0
1315833	-0.0408181262713896
1316667	-0.0816852538948449
1317500	-0.122503380166233
1318333	-0.163321506437622
1319167	-0.204188634061078
1320000	-0.245006760332465
1320833	-0.285824886603855
1321667	-0.32669201422731
1322500	-0.367510140498698
1323333	-0.408328266770088
1324167	-0.449195394393543
1325000	-0.490013520664931
1325833	-0.530831646936321
1326667	-0.571698774559776
1327500	-0.612516900831164
1328333	-0.653335027102553
1329167	-0.694202154726009
1330000	-0.735020280997396
1330833	-0.775838407268786
1331667	-0.816705534892241
1332500	0.142476338836371
1333333	0.101658212564981
1334167	0.0607910849415259
1335000	0.0199729586701363
1335833	-0.0208451676012515
1336667	-0.0617122952247069
1337500	-1.1025304214961
1338333	-1.14334854776748
1339167	-1.18421567539094
1340000	-1.22503380166233
1340833	-1.26585192793372
1341667	-1.30671905555717
1342500	-1.34753718182856
1343333	-0.38835530809995
1344167	-0.429222435723405
1345000	-0.470040561994795
1345833	-0.510858688266183
1346667	-0.551725815889638
1347500	-0.592543942161027
1348333	-0.633362068432415
1349167	-0.674229196055871
1350000	-0.71504732232726
1350833	-0.75586544859865
1351667	-0.796732576222105
1352500	-0.837550702493493
1353333	0.121631171235119
1354167	0.0807640436116621
1355000	0.0399459173402743
1355833	-8.72208931113505E-4
1356667	-0.0417393365545706
1357500	-0.0825574628259584
1358333	-1.12337558909735
1359167	-1.1642427167208
1360000	-0.205060842992191
1360833	-0.245878969263581
1361667	0.713253903112964
1362500	0.672435776841576
1363333	0.631617650570186
1364167	0.590750522946731
1365000	1.54993239667534
1365833	1.50911427040395
1366667	1.4682471427805
1367500	1.42742901650911
1368333	1.38661089023772
1369167	1.34574376261427
1370000	1.30492563634288
1370833	1.26410751007149
1371667	1.22324038244803
1372500	1.18242225617664
1373333	0.141604129905256
1374167	0.1007370022818
1375000	0.0599188760104106
1375833	0.0191007497390228
1376667	-0.0217663778844326
1377500	-0.0625845041558222
1378333	-0.10340263042721
1379167	0.855730241949335
1380000	0.814912115677945
1380833	0.774093989406555
1381667	0.733226861783102
1382500	-0.307591264488288
1383333	-1.34840939075968
1384167	-1.38927651838313
1385000	-1.43009464465452
1385833	-1.47091277092591
1386667	-1.51177989854936
1387500	-1.55259802482075
1388333	-0.593416151092143
1389167	-0.634283278715596
1390000	-0.675101404986986
1390833	-1.71591953125838
1391667	-1.75678665888183
1392500	-1.79760478515322
1393333	-0.838422911424608
1394167	-0.879290039048064
1395000	-0.920108165319451
1395833	0.039073708409159
1396667	-1.00179341921429
1397500	-1.04261154548568
1398333	-1.08342967175707
1399167	-1.12429679938053
1400000	-2.16511492565192
1400833	-2.18511306353638
1401667	-2.11566012691856
1402500	-2.04629046720316
1403333	-1.97692080748776
1404167	-1.90746787086994
1405000	-0.83809821115454
1405833	-0.768728551439139
1406667	-0.699275614821318
1407500	-1.62990595510592
1408333	-1.56053629539052
1409167	-1.49108335877269
1410000	-0.421713699057294
1410833	-0.352344039341892
1411667	0.717108897275928
1412500	0.786478556991328
1413333	0.855848216706731
1414167	1.92530115332455
1415000	1.99467081303995
1415833	2.06404047275535
1416667	3.13349340937317
1417500	3.20286306908858
1418333	4.27223272880398
1419167	4.3416856654218
1420000	5.4110553251372
1420833	5.4804249848526
1421667	5.54987792147042
1422500	6.61924758118582
1423333	6.68861724090122
1424167	7.75807017751904
1425000	7.82743983723444
1425833	8.89680949694985
1426667	8.96626243356767
1427500	9.03563209328307
1428333	9.10500175299847
1429167	9.17445468961629
1430000	9.24382434933169
1430833	9.31319400904709
1431667	9.38264694566491
1432500	10.4520166053803
1433333	10.5213862650957
1434167	10.5908392017135
1435000	10.6602088614289
1435833	10.7295785211443
1436667	10.7990314577622
1437500	10.8684011174776
1438333	10.937770777193
1439167	10.0072237138108
1440000	10.0765933735262
1440833	10.1459630332416
1441667	9.2154159698594
1442500	9.2847856295748
1443333	8.3541552892902
1444167	8.42360822590803
1445000	7.49297788562343
1445833	7.56234754533883
1446667	6.63180048195665
1447500	6.70117014167205
1448333	5.77053980138745
1449167	5.83999273800527
1450000	5.90936239772067
1450833	4.97873205743607
1451667	5.04818499405389
1452500	4.1175546537693
1453333	4.1869243134847
1454167	3.25637725010252
1455000	3.32574690981792
1455833	3.39511656953332
1456667	2.46456950615114
1457500	2.53393916586654
1458333	1.60330882558194
1459167	1.67276176219976
1460000	1.74213142191516
1460833	1.81150108163057
1461667	1.88095401824839
1462500	1.95032367796379
1463333	2.01969333767919
1464167	2.08914627429701
1465000	2.15851593401241
1465833	2.22788559372781
1466667	2.29733853034563
1467500	2.36670819006103
1468333	2.43607784977643
1469167	1.50553078639425
1470000	1.57490044610966
1470833	1.64427010582506
1471667	1.71372304244288
1472500	1.78309270215828
1473333	1.85246236187368
1474167	1.89642117123606
1475000	1.87207821911138
1475833	1.84773526698671
1476667	1.82336309163019
1477500	2.79902013950551
1478333	2.77467718738083
1479167	2.75030501202431
1480000	2.72596205989963
1480833	2.70161910777496
1481667	2.67724693241844
1482500	2.65290398029376
1483333	2.62856102816908
1484167	2.60418885281256
1485000	1.57984590068788
1485833	1.55550294856321
1486667	2.53113077320669
1487500	2.50678782108201
1488333	2.48244486895733
1489167	2.45807269360081
1490000	2.43372974147613
1490833	2.40938678935146
1491667	2.38501461399494
1492500	2.36067166187026
1493333	2.33632870974558
1494167	2.31195653438906
1495000	2.28761358226438
1495833	2.26327063013971
1496667	1.23889845478319
1497500	2.21455550265851
1498333	2.19021255053383
1499167	2.16584037517731
1500000	2.14149742305263
1500833	2.11715447092795
1501667	2.09278229557143
1502500	2.06843934344676
1503333	2.04409639132208
1504167	2.01972421596556
1505000	1.99538126384088
1505833	1.9710383117162
1506667	1.94666613635968
1507500	1.92232318423501
1508333	1.89798023211033
1509167	1.87360805675381
1510000	1.84926510462913
1510833	1.82492215250445
1511667	1.80054997714793
1512500	1.77620702502326
1513333	1.75186407289858
1514167	1.72749189754206
1515000	2.70314894541738
1515833	2.6788059932927
1516667	2.65443381793618
1517500	1.63009086581151
1518333	1.60574791368683
1519167	1.58137573833031
1520000	1.55703278620563
1520833	1.53268983408095
1521667	1.50831765872443
1522500	1.48397470659976
1523333	1.45963175447508
1524167	1.43525957911856
1525000	1.41091662699388
1525833	1.3865736748692
1526667	1.36220149951268
1527500	1.33785854738801
1528333	1.31351559526333
1529167	1.28914341990681
1530000	1.26480046778213
1530833	1.24045751565745
1531667	1.21608534030093
1532500	2.19174238817626
1533333	1.16739943605158
1534167	1.14302726069506
1535000	1.11868430857038
1535833	1.0943413564457
1536667	1.06996918108918
1537500	1.0456262289645
1538333	1.02128327683983
1539167	0.996911101483308
1540000	-0.0274318506413707
1540833	-0.0517748027660474
1541667	-0.0761469781225674
1542500	-0.100489930247246
1543333	-0.124832882371923
1544167	0.850794942271557
1545000	0.826451990146879
1545833	0.802109038022202
1546667	0.777736862665682
1547500	1.753393910541
1548333	1.72905095841633
1549167	1.70467878305981
1550000	1.68033583093513
1550833	1.65599287881045
1551667	1.63162070345393
1552500	1.60727775132925
1553333	1.58293479920458
1554167	1.55856262384806
1555000	1.53421967172338
1555833	1.5098767195987
1556667	1.48550454424218
1557500	1.4611615921175
1558333	1.43681863999283
1559167	1.41244646463631
1560000	1.38810351251163
1560833	1.36376056038695
1561667	1.33938838503043
1562500	0.315045432905753
1563333	0.290702480781075
1564167	0.266330305424557
1565000	-0.758012646700122
1565833	-0.7823555988248
1566667	-0.806727774181319
1567500	-0.831070726305997
1568333	0.144586321569324
1569167	0.120214146212806
1570000	0.0958711940881276
1570833	0.0715282419634491
1571667	1.04715606660693
1572500	1.02281311448225
1573333	0.998470162357576
1574167	0.974097987001056
1575000	0.949755034876377
1575833	0.9254120827517
1576667	0.90103990739518
1577500	0.876696955270502
1578333	0.852354003145825
1579167	0.827981827789305
1580000	0.803638875664626
1580833	0.77929592353995
1581667	0.75492374818343
1582500	0.730580796058751
1583333	1.70623784393407
1584167	1.68186566857755
1585000	1.65752271645288
1585833	1.6331797643282
1586667	1.60880758897168
1587500	0.584464636847002
1588333	0.560121684722324
1589167	0.535749509365804
1590000	0.511406557241127
1590833	0.487063605116449
1591667	0.462691429759929
1592500	0.438348477635252
1593333	0.414005525510573
1594167	0.389633350154053
1595000	0.365290398029376
1595833	0.340947445904698
1596667	0.316575270548178
1597500	0.292232318423501
1598333	0.267889366298823
1599167	0.243517190942303
1600000	0.219174238817626
1600833	0.194831286692947
1601667	1.17045911133643
1602500	1.14611615921175
1603333	1.12177320708707
1604167	2.09740103173055
1605000	1.07305807960588
1605833	1.0487151274812
1606667	1.02434295212468
1607500	0
1608333	0.00854358974359037
1609167	0.0170974358974352
1610000	0.0256410256410256
1610833	0.0341846153846159
1611667	0.0427384615384607
1612500	1.05128205128205
1613333	1.05982564102564
1614167	1.06837948717949
1615000	1.07692307692308
1615833	1.08546666666667
1616667	1.09402051282051
1617500	1.1025641025641
1618333	1.11110769230769
1619167	1.11966153846154
1620000	1.12820512820513
1620833	0.136748717948718
1621667	0.145302564102565
1622500	0.153846153846153
1623333	0.162389743589744
1624167	0.17094358974359
1625000	1.17948717948718
1625833	1.18803076923077
1626667	1.19658461538462
1627500	1.2051282051282
1628333	1.21367179487179
1629167	1.22222564102564
1630000	1.23076923076923
1630833	1.23931282051282
1631667	1.24786666666667
1632500	0.256410256410256
1633333	0.264953846153846
1634167	0.273507692307692
1635000	0.282051282051283
1635833	0.290594871794871
1636667	0.299148717948718
1637500	0.307692307692308
1638333	0.316235897435897
1639167	0.324789743589744
1640000	0.333333333333334
1640833	0.341876923076923
1641667	0.350430769230769
1642500	0.358974358974359
1643333	0.367517948717948
1644167	0.376071794871795
1645000	0.384615384615385
1645833	0.393158974358974
1646667	0.40171282051282
1647500	0.410256410256411
1648333	0.418799999999999
1649167	0.427353846153846
1650000	0.435897435897436
1650833	0.444441025641027
1651667	0.452994871794871
1652500	0.461538461538462
1653333	0.470082051282052
1654167	0.478635897435897
1655000	0.487179487179487
1655833	0.495723076923078
1656667	0.504276923076922
1657500	0.512820512820513
1658333	0.521364102564103
1659167	0.529917948717948
1660000	0.538461538461538
1660833	0.547005128205129
1661667	0.555558974358974
1662500	-0.435897435897436
1663333	-0.427353846153846
1664167	-0.418799999999999
1665000	0.589743589743589
1665833	0.59828717948718
1666667	0.606841025641026
1667500	0.615384615384615
1668333	0.623928205128205
1669167	0.632482051282052
1670000	0.641025641025641
1670833	0.649569230769231
1671667	1.65812307692308
1672500	1.66666666666667
1673333	1.67521025641026
1674167	1.6837641025641
1675000	1.69230769230769
1675833	2.70085128205128
1676667	2.70940512820513
1677500	1.71794871794872
1678333	1.72649230769231
1679167	0.735046153846154
1680000	0.743589743589745
1680833	0.752133333333333
1681667	0.76068717948718
1682500	0.76923076923077
1683333	0.777774358974359
1684167	0.786328205128205
1685000	0.794871794871796
1685833	-0.196584615384616
1686667	-0.188030769230769
1687500	-0.179487179487179
1688333	-0.17094358974359
1689167	-0.162389743589744
1690000	-0.153846153846153
1690833	-0.145302564102565
1691667	-0.136748717948718
1692500	0.871794871794872
1693333	0.880338461538461
1694167	0.888892307692307
1695000	0.897435897435898
1695833	0.905979487179486
1696667	0.914533333333333
1697500	0.923076923076923
1698333	0.931620512820512
1699167	-0.0598256410256415
1700000	-0.0512820512820511
1700833	-0.0427384615384607
1701667	-0.0341846153846159
1702500	-0.0256410256410256
1703333	-0.0170974358974352
1704167	-0.00854358974359037
1705000	0
1705833	0.999241424511279
1706667	0.998481938367711
1707500	0.997723362878991
1708333	0.996964787390271
1709167	0.996205301246702
1710000	0.995446725757981
1710833	0.994688150269262
1711667	0.993928664125693
1712500	-0.00682991136302746
1713333	-0.0075884868517484
1714167	-0.00834797299531687
1715000	-0.00910654848403603
1715833	-0.00986512397275696
1716667	-0.0106246101163254
1717500	-0.0113831856050464
1718333	-0.0121417610937655
1719167	-0.012901247237334
1720000	-0.0136598227260549
1720833	-0.0144183982147741
1721667	-0.0151778843583443
1722500	-0.0159364598470635
1723333	-0.0166950353357844
1724167	0.982545478520647
1725000	0.981786903031928
1725833	0.981028327543207
1726667	0.980268841399639
1727500	0.979510265910918
1728333	0.978751690422198
1729167	0.97799220427863
1730000	0.977233628789909
1730833	0.976475053301188
1731667	0.97571556715762
1732500	0.9749569916689
1733333	1.97419841618018
1734167	1.97343893003661
1735000	0.97268035454789
1735833	0.971921779059171
1736667	0.971162292915603
1737500	0.970403717426882
1738333	1.96964514193816
1739167	1.96888565579459
1740000	0.968127080305873
1740833	0.967368504817152
1741667	0.966609018673584
1742500	0.965850443184863
1743333	0.965091867696144
1744167	0.964332381552575
1745000	0.963573806063854
1745833	0.962815230575133
1746667	0.962055744431565
1747500	-0.0387028310571544
1748333	-0.0394614065458754
1749167	-0.0402208926894438
1750000	0.959020531821835
1750833	0.958261956333116
1751667	0.957502470189548
1752500	0.956743894700827
1753333	0.955985319212108
1754167	0.955225833068537
1755000	0.954467257579818
1755833	0.953708682091097
1756667	0.952949195947529
1757500	0.95219062045881
1758333	0.951432044970089
1759167	0.95067255882652
1760000	0.949913983337799
1760833	0.94915540784908
1761667	0.948395921705512
1762500	0.947637346216791
1763333	0.94687877072807
1764167	0.946119284584501
1765000	0.945360709095782
1765833	0.944602133607061
1766667	0.943842647463493
1767500	0.943084071974772
1768333	0.942325496486053
1769167	1.94156601034248
1770000	1.94080743485376
1770833	1.94004885936504
1771667	1.93928937322147
1772500	1.93853079773275
1773333	1.93777222224403
1774167	1.93701273610047
1775000	1.93625416061174
1775833	0.935495585123025
1776667	0.934736098979457
1777500	1.93397752349074
1778333	1.93321894800201
1779167	1.93245946185845
1780000	1.93170088636973
1780833	1.93094231088101
1781667	1.93018282473744
1782500	1.92942424924872
1783333	1.92866567376
1784167	1.92790618761643
1785000	1.92714761212771
1785833	1.92638903663899
1786667	1.92562955049542
1787500	1.9248709750067
1788333	1.92411239951798
1789167	1.92335291337441
1790000	1.92259433788569
1790833	1.92183576239697
1791667	1.9210762762534
1792500	1.92031770076468
1793333	1.91955912527596
1794167	1.91879963913239
1795000	1.91804106364367
1795833	0.917282488154951
1796667	0.916523002011383
1797500	1.91576442652266
1798333	1.91500585103394
1799167	1.91424636489037
1800000	1.91348778940165
1800833	1.91272921391293
1801667	1.91196972776937
1802500	0.911211152280645
1803333	0.910452576791924
1804167	0.909693090648355
1805000	0.908934515159636
1805833	0.908175939670915
1806667	0.907416453527347
1807500	1.90665787803863
1808333	1.90589930254991
1809167	1.90513981640634
1810000	1.90438124091762
1810833	1.9036226654289
1811667	1.90286317928533
1812500	1.90210460379661
1813333	1.90134602830789
1814167	0.900586542164319
1815000	0.899827966675598
1815833	1.89906939118688
1816667	1.89830990504331
1817500	1.89755132955459
1818333	1.89679275406587
1819167	1.8960332679223
1820000	2.89527469243358
1820833	2.89451611694486
1821667	1.89375663080129
1822500	1.89299805531257
1823333	1.89223947982385
1824167	1.89147999368028
1825000	1.89072141819156
1825833	1.88996284270284
1826667	1.88920335655927
1827500	2.88844478107055
1828333	2.88768620558183
1829167	2.88692671943826
1830000	2.88616814394955
1830833	2.88540956846082
1831667	2.88465008231726
1832500	2.88389150682853
1833333	2.88313293133982
1834167	2.88237344519625
1835000	2.88161486970753
1835833	2.88085629421881
1836667	2.88009680807524
1837500	2.87933823258652
1838333	2.8785796570978
1839167	1.87782017095423
1840000	1.87706159546551
1840833	1.87630301997679
1841667	1.87554353383322
1842500	1.8747849583445
1843333	1.87402638285578
1844167	1.87326689671221
1845000	1.87250832122349
1845833	1.87174974573477
1846667	1.8709902595912
1847500	1.87023168410248
1848333	1.86947310861376
1849167	1.86871362247019
1850000	1.86795504698147
1850833	1.86719647149275
1851667	1.86643698534918
1852500	1.86567840986046
1853333	1.86491983437174
1854167	1.86416034822817
1855000	1.86340177273945
1855833	1.86264319725073
1856667	1.86188371110716
1857500	1.86112513561844
1858333	1.86036656012972
1859167	1.85960707398615
1860000	1.85884849849744
1860833	1.85808992300871
1861667	0.857330436865146
1862500	0.856571861376427
1863333	0.855813285887706
1864167	-0.144946200255863
1865000	-0.145704775744584
1865833	-0.146463351233303
1866667	-1.14722283737687
1867500	-1.11751984753863
1868333	-1.05947584655227
1869167	-2.00136216489246
1870000	-1.9433181639061
1870833	-1.88527416291975
1871667	-2.82716048125994
1872500	-2.76911648027358
1873333	-3.71107247928723
1874167	-4.65295879762742
1875000	-5.59491479664106
1875833	-6.53687079565471
1876667	-7.4787571139949
1877500	-8.42071311300854
1878333	-9.36266911202218
1879167	-10.3045554303624
1880000	-11.246511429376
1880833	-12.1884674283897
1881667	-13.1303537467299
1882500	-15.0723097457435
1883333	-17.0142657447571
1884167	-17.9561520630973
1885000	-19.898108062111
1885833	-20.8400640611246
1886667	-22.7819503794648
1887500	-24.7239063784785
1888333	-26.6658623774921
1889167	-28.6077486958323
1890000	-30.5497046948459
1890833	-33.4916606938596
1891667	-35.4335470121998
1892500	-38.3755030112134
1893333	-40.3174590102271
1894167	-43.2593453285673
1895000	-45.2013013275809
1895833	-48.1432573265945
1896667	-51.0851436449347
1897500	-53.0270996439484
1898333	-55.969055642962
1899167	-57.9109419613022
1900000	-60.8528979603159
1900833	-62.7948539593295
1901667	-65.7367402776697
1902500	-67.6786962766833
1903333	-70.620652275697
1904167	-73.5625385940372
1905000	-75.5044945930508
1905833	-77.4464505920645
1906667	-79.3883369104046
1907500	-81.3302929094183
1908333	-83.2722489084319
1909167	-85.2141352267721
1910000	-86.1560912257858
1910833	-87.0980472247994
1911667	-89.0399335431396
1912500	-89.9818895421532
1913333	-90.9238455411669
1914167	-90.8657318595071
1915000	-91.8076878585207
1915833	-91.7496438575344
1916667	-91.6915301758746
1917500	-90.6334861748882
1918333	-90.5754421739018
1919167	-89.517328492242
1920000	-87.4592844912557
1920833	-86.4012404902693
1921667	-85.3431268086095
1922500	-84.2850828076232
1923333	-81.2270388066368
1924167	-79.168925124977
1925000	-77.1108811239906
1925833	-74.0528371230043
1926667	-70.9947234413445
1927500	-67.9366794403581
1928333	-64.8786354393718
1929167	-61.8205217577119
1930000	-58.7624777567256
1930833	-56.7044337557392
1931667	-53.6463200740794
1932500	-50.5882760730931
1933333	-46.5302320721067
1934167	-43.4721183904469
1935000	-39.4140743894606
1935833	-36.3560303884742
1936667	-33.2979167068144
1937500	-30.239872705828
1938333	-28.1818287048417
1939167	-25.1237150231819
1940000	-22.0656710221955
1940833	-20.0076270212091
1941667	-16.9495133395493
1942500	-14.891469338563
1943333	-12.8334253375766
1944167	-10.7753116559168
1945000	-8.71726765493046
1945833	-6.65922365394411
1946667	-5.6011099722843
1947500	-3.54306597129794
1948333	-2.48502197031159
1949167	-1.42690828865178
1950000	-0.368864287665421
1950833	0.689179713320935
1951667	1.74729339498074
1952500	2.8053373959671
1953333	2.86338139695346
1954167	2.92149507861327
1955000	3.36798883023129
1955833	4.29780907680119
1956667	5.22874555415929
1957500	6.15856580072919
1958333	6.08838604729909
1959167	6.01932252465719
1960000	5.94914277122709
1960833	5.87896301779699
1961667	5.80989949515509
1962500	5.73971974172499
1963333	5.66953998829489
1964167	5.60047646565298
1965000	5.53029671222288
1965833	5.46011695879278
1966667	4.39105343615088
1967500	4.32087368272078
1968333	4.25069392929068
1969167	4.18163040664878
1970000	3.11145065321868
1970833	3.04127089978858
1971667	2.97220737714668
1972500	1.90202762371658
1973333	1.83184787028648
1974167	0.76278434764458
1975000	0.692604594214476
1975833	-0.377575159215624
1976667	-0.446638681857522
1977500	-0.516818435287622
1978333	-1.04853654787737
1979167	-1.92988778115526
1980000	-1.81138127914144
1980833	-2.69287477712763
1981667	-3.57422601040552
1982500	-4.45571950839171
1983333	-5.3372130063779
1984167	-6.21856423965579
1985000	-6.10005773764198
1985833	-6.98155123562817
1986667	-7.86290246890606
1987500	-7.74439596689225
1988333	-7.62588946487843
1989167	-8.50724069815632
1990000	-8.38873419614252
1990833	-8.2702276941287
1991667	-7.15157892740659
1992500	-7.03307242539278
1993333	-6.91456592337897
1994167	-6.79591715665686
1995000	-6.67741065464305
1995833	-6.55890415262924
1996667	-5.44025538590713
1997500	-5.32174888389332
1998333	-5.20324238187951
1999167	-4.0845936151574
2000000	-3.96608711314359
2000833	-3.84758061112978
2001667	-3.72893184440766
2002500	-2.61042534239385
2003333	-2.49191884038004
2004167	-1.37327007365793
2005000	-0.254763571644119
2005833	0.863742930369689
2006667	0.982391697091799
2007500	2.10089819910561
2008333	2.21940470111942
2009167	3.33805346784153
2010000	3.45655996985534
2010833	3.14616655702714
2011667	2.82257901142138
2012500	2.49937946047462
2013333	3.17617990952787
2014167	2.85259236392211
2015000	2.52939281297536
2015833	2.2061932620286
2016667	1.88260571642284
2017500	1.55940616547609
2018333	1.23620661452933
2019167	-0.0873809310764244
2020000	-0.410580482023178
2020833	-1.73378003296994
2021667	-2.05736757857569
2022500	-3.38056712952245
2023333	-4.7037666804692
2024167	-6.02735422607496
2025000	-6.35055377702172
2025833	-7.67375332796847
2026667	-8.99734087357423
2027500	-11.320540424521
2028333	-12.6437399754677
2029167	-13.9673275210735
2030000	-14.2905270720203
2030833	-15.613726622967
2031667	-15.9373141685728
2032500	-17.2605137195195
2033333	-18.5837132704663
2034167	-19.907300816072
2035000	-21.2305003670188
2035833	-22.5536999179655
2036667	-23.8772874635713
2037500	-24.2004870145181
2038333	-25.5236865654648
2039167	-26.8472741110706
2040000	-28.1704736620173
2040833	-28.4936732129641
2041667	-29.8172607585698
2042500	-30.1404603095166
2043333	-30.4636598604633
2044167	-30.7872474060691
2045000	-32.1104469570159
2045833	-32.4336465079626
2046667	-32.7572340535684
2047500	-33.0804336045151
2048333	-33.4036331554619
2049167	-33.7272207010676
2050000	-35.0504202520144
2050833	-34.3736198029612
2051667	-34.6972073485669
2052500	-34.0204068995137
2053333	-34.3436064504604
2054167	-34.6671939960662
2055000	-33.9903935470129
2055833	-34.3135930979597
2056667	-33.6371806435654
2057500	-33.9603801945122
2058333	-33.283579745459
2059167	-32.6071672910647
2060000	-32.9303668420115
2060833	-32.2535663929582
2061667	-31.577153938564
2062500	-30.9003534895107
2063333	-30.2235530404575
2064167	-29.5471405860632
2065000	-28.87034013701
2065833	-28.1935396879568
2066667	-27.5171272335625
2067500	-26.8403267845093
2068333	-26.163526335456
2069167	-25.4871138810618
2070000	-24.8103134320085
2070833	-24.1335129829553
2071667	-23.457100528561
2072500	-21.7803000795078
2073333	-21.1034996304546
2074167	-20.4270871760603
2075000	-19.7502867270071
2075833	-19.0734862779538
2076667	-18.3970738235596
2077500	-17.7202733745063
2078333	-17.0434729254531
2079167	-15.3670604710588
2080000	-14.6902600220056
2080833	-14.0134595729524
2081667	-13.3370471185581
2082500	-12.6602466695049
2083333	-11.9834462204516
2084167	-10.3070337660574
2085000	-9.63023331700414
2085833	-8.9534328679509
2086667	-9.27702041355665
2087500	-8.60021996450341
2088333	-7.92341951545016
2089167	-8.24700706105592
2090000	-7.57020661200268
2090833	-6.89340616294943
2091667	-6.21699370855519
2092500	-4.54019325950194
2093333	-3.8633928104487
2094167	-4.18698035605445
2095000	-3.51017990700121
2095833	-2.83337945794797
2096667	-3.15696700355372
2097500	-2.48016655450047
2098333	-2.80336610544724
2099167	-3.12695365105299
2100000	-2.45015320199974
2100833	-2.7733527529465
2101667	-2.09694029855226
2102500	-2.42013984949901
2103333	-1.74333940044577
2104167	-1.06692694605153
2105000	-1.39012649699828
2105833	-1.71332604794504
2106667	-2.0369135935508
2107500	-2.36011314449755
2108333	-2.67439781201024
2109167	-2.7208255902928
2110000	-1.76719769977647
2110833	-1.81356980926013
2111667	-1.8599975875427
2112500	-1.90636969702636
2113333	-1.95274180651002
2114167	-1.99916958479259
2115000	-2.04554169427625
2115833	-1.09191380375992
2116667	-1.13834158204248
2117500	-1.18471369152615
2118333	-1.23108580100981
2119167	-1.27751357929238
2120000	-1.32388568877604
2120833	-1.37025779825971
2121667	-1.41668557654227
2122500	-0.463057686025937
2123333	-0.509429795509602
2124167	-0.555857573792165
2125000	-0.602229683275832
2125833	-0.648601792759496
2126667	0.30497042895794
2127500	0.258598319474274
2128333	0.212226209990611
2129167	-0.834201568291954
2130000	-0.880573677775619
2130833	-0.926945787259285
2131667	-0.973373565541849
2132500	-1.01974567502551
2133333	-1.06611778450918
2134167	-0.112545562791743
2135000	-0.158917672275408
2135833	-0.205289781759072
2136667	0.748282439958363
2137500	0.701910330474698
2138333	0.655538220991033
2139167	0.609110442708468
2140000	0.562738333224804
2140833	-0.483633776258861
2141667	-0.530061554541426
2142500	-0.576433664025091
2143333	-0.622805773508755
2144167	-0.66923355179132
2145000	-0.715605661274985
2145833	-0.76197777075865
2146667	-0.808405549041215
2147500	-0.854777658524879
2148333	-0.901149768008544
2149167	-0.947577546291109
2150000	0.00605034422522621
2150833	-0.0403217652584384
2151667	-0.0867495435410035
2152500	-0.133121653024666
2153333	-0.179493762508333
2154167	-0.225921540790896
2155000	-0.272293650274563
2155833	-0.318665759758227
2156667	-0.365093538040792
2157500	-0.411465647524455
2158333	-0.457837757008122
2159167	-0.504265535290685
2160000	-0.55063764477435
2160833	-0.597009754258014
2161667	-0.643437532540579
2162500	-0.689809642024244
2163333	-0.73618175150791
2164167	-0.782609529790474
2165000	-0.828981639274138
2165833	-0.875353748757803
2166667	-0.921781527040368
2167500	0.0318463634759674
2168333	-0.0145257460076973
2169167	-0.0609535242902624
2170000	-0.107325633773927
2170833	-0.153697743257592
2171667	-0.200125521540157
2172500	-0.246497631023821
2173333	-0.292869740507486
2174167	-0.339297518790051
2175000	-0.385669628273716
2175833	-0.43204173775738
2176667	-0.478469516039945
2177500	-0.52484162552361
2178333	-0.571213735007275
2179167	-0.61764151328984
2180000	-0.664013622773503
2180833	0.289614267742831
2181667	0.243186489460268
2182500	0.196814379976601
2183333	0.150442270492938
2184167	0.104014492210371
2185000	0.0576423827267085
2185833	0.0112702732430421
2186667	-0.0351575050395212
2187500	-0.0815296145231876
2188333	-0.127901724006851
2189167	-0.174329502289417
2190000	-0.22070161177308
2190833	-0.25601638813653
2191667	-0.274270044555315
2192500	-0.292501814095903
2193333	-0.310733583636488
2194167	-0.328987240055273
2195000	-1.34721900959586
2195833	-1.36545077913645
2196667	-1.38370443555523
2197500	-1.40193620509582
2198333	-0.420167974636406
2199167	-0.438421631055192
2200000	-0.45665340059578
2200833	-0.474885170136364
2201667	-0.49313882655515
2202500	-1.51137059609574
2203333	-1.52960236563633
2204167	-2.54785602205511
2205000	-2.5660877915957
2205833	-2.58431956113628
2206667	-2.60257321755507
2207500	-2.62080498709566
2208333	-2.63903675663624
2209167	-2.65729041305503
2210000	-2.67552218259561
2210833	-2.6937539521362
2211667	-2.71200760855499
2212500	-2.73023937809557
2213333	-2.74847114763616
2214167	-2.76672480405495
2215000	-2.78495657359553
2215833	-1.80318834313612
2216667	-1.8214419995549
2217500	-1.83967376909549
2218333	-1.85790553863608
2219167	-1.87615919505486
2220000	-1.89439096459545
2220833	-1.91262273413604
2221667	-1.93087639055482
2222500	-0.94910816009541
2223333	-0.967339929635994
2224167	-0.98559358605478
2225000	-1.00382535559537
2225833	-1.02205712513595
2226667	-1.04031078155474
2227500	-1.05854255109533
2228333	-1.07677432063591
2229167	-1.0950279770547
2230000	-1.11325974659529
2230833	-1.13149151613587
2231667	-1.14974517255466
2232500	-2.16797694209524
2233333	-2.18620871163583
2234167	-2.20446236805462
2235000	-2.2226941375952
2235833	-1.24092590713579
2236667	-1.25917956355458
2237500	-1.27741133309516
2238333	-1.29564310263575
2239167	-1.31389675905453
2240000	-1.33212852859512
2240833	-1.3503602981357
2241667	-0.368613954554494
2242500	-0.386845724095078
2243333	-0.405077493635666
2244167	-0.423331150054452
2245000	0.558437080404964
2245833	0.540205310864376
2246667	0.521951654445591
2247500	0.503719884905003
2248333	-0.514511884635581
2249167	-0.532765541054371
2250000	-0.550997310594955
2250833	-0.569229080135543
2251667	-0.587482736554328
2252500	-0.605714506094913
2253333	-0.6239462756355
2254167	-0.642199932054286
2255000	-0.660431701594874
2255833	-0.678663471135458
2256667	-0.696917127554247
2257500	-0.715148897094831
2258333	-0.733380666635419
2259167	-0.751634323054205
2260000	-0.769866092594789
2260833	-0.788097862135377
2261667	-0.806351518554163
2262500	-0.82458328809475
2263333	-0.842815057635335
2264167	-0.861068714054124
2265000	-0.879300483594708
2265833	-0.897532253135296
2266667	-0.915785909554081
2267500	-0.934017679094666
2268333	-0.952249448635254
2269167	-0.970503105054039
2270000	-0.988734874594627
2270833	-1.00696664413521
2271667	-0.0252203005540004
2272500	-0.0434520700945846
2273333	-0.0616838396351724
2274167	-0.0799374960539581
2275000	-0.0981692655945423
2275833	-1.11640103513513
2276667	-1.13465469155392
2277500	-1.1528864610945
2278333	-1.17111823063509
2279167	-1.18937188705388
2280000	-1.20760365659446
2280833	-0.225835426135049
2281667	-0.244089082553835
2282500	-0.262320852094419
2283333	-0.280552621635007
2284167	0.701193721946208
2285000	-0.31703804759438
2285833	-0.335269817134964
2286667	-0.35352347355375
2287500	-0.371755243094338
2288333	-0.389987012634926
2289167	-0.408240669053711
2290000	-0.426472438594296
2290833	-0.444704208134883
2291667	-0.462957864553669
2292500	-0.481189634094257
2293333	-0.499421403634841
2294167	-0.517675060053627
2295000	-0.535906829594214
2295833	-0.554138599134802
2296667	-0.572392255553588
2297500	-1.59062402509417
2298333	-1.60885579463476
2299167	-1.62710945105355
2300000	-1.64534122059413
2300833	-1.66357299013472
2301667	-1.6818266465535
2302500	-1.70005841609409
2303333	-1.71829018563468
2304167	-0.736543842053464
2305000	-0.754775611594049
2305833	-0.773007381134637
2306667	0.208738962446578
2307500	0.19050719290599
2308333	0.172275423365406
2309167	0.15402176694662
2310000	0.135789997406032
2310833	-0.882441772134555
2311667	-0.900695428553341
2312500	-0.918927198093925
2313333	-0.937158967634513
2314167	0.0445873759467013
2315000	0.0263556064061135
2315833	0.0081238368655292
2316667	-0.0101298195532564
2317500	0.971638410906156
2318333	0.953406641365568
2319167	0.935152984946782
2320000	0.916921215406198
2320833	0.89868944586561
2321667	0.880435789446825
2322500	0.862204019906237
2323333	1.84397225036565
2324167	1.82571859394687
2325000	2.80748682440628
2325833	3.78925505486569
2326667	4.77100139844691
2327500	4.75276962890632
2328333	4.73453785936573
2329167	4.71628420294695
2330000	5.69698642011294
2330833	6.67086395600028
2331667	6.64471013238689
2332500	7.61858766827423
2333333	8.59246520416157
2334167	9.56631138054818
2335000	10.5401889164355
2335833	11.5140664523229
2336667	12.4879126287095
2337500	13.4617901645968
2338333	14.4356677004842
2339167	15.4095138768708
2340000	17.3833914127581
2340833	18.3572689486455
2341667	19.3311151250321
2342500	21.3049926609194
2343333	22.2788701968067
2344167	24.2527163731934
2345000	26.2265939090807
2345833	28.200471444968
2346667	30.1743176213547
2347500	33.148195157242
2348333	35.1220726931293
2349167	38.0959188695159
2350000	41.0697964054033
2350833	44.0436739412906
2351667	47.0175201176772
2352500	49.9913976535646
2353333	53.9652751894519
2354167	57.9391213658385
2355000	62.9129989017259
2355833	66.8868764376132
2356667	71.8607226139998
2357500	76.8346001498872
2358333	81.8084776857745
2359167	87.7823238621611
2360000	93.7562013980485
2360833	100.730078933936
2361667	107.703925110322
2362500	115.67780264621
2363333	122.651680182097
2364167	130.625526358484
2365000	139.599403894371
2365833	149.573281430258
2366667	159.547127606645
2367500	169.521005142532
2368333	181.49488267842
2369167	193.468728854806
2370000	205.442606390694
2370833	218.416483926581
2371667	233.390330102968
2372500	248.364207638855
2373333	263.338085174742
2374167	280.311931351129
2375000	297.285808887016
2375833	315.259686422904
2376667	335.23353259929
2377500	355.207410135178
2378333	377.181287671065
2379167	400.155133847451
2380000	424.129011383339
2380833	450.102888919226
2381667	477.076735095613
2382500	505.0506126315
2383333	534.024490167387
2384167	564.998336343774
2385000	595.972213879661
2385833	628.946091415549
2386667	663.919937591935
2387500	700.893815127823
2388333	738.86769266371
2389167	778.841538840097
2390000	819.815416375984
2390833	862.789293911871
2391667	907.763140088258
2392500	953.737017624145
2393333	1001.71089516003
2394167	1050.68474133642
2395000	1101.65861887231
2395833	1154.63249640819
2396667	1208.60634258458
2397500	1263.58022012047
2398333	1319.55409765636
2399167	1377.52794383274
2400000	1436.50182136863
2400833	1497.47569890452
2401667	1558.4495450809
2402500	1620.42342261679
2403333	1683.39730015268
2404167	1746.37114632906
2405000	1810.34502386495
2405833	1873.31890140084
2406667	1937.29274757723
2407500	2000.26662511311
2408333	2063.240502649
2409167	2125.21434882539
2410000	2186.18822636127
2410833	2246.16210389716
2411667	2304.13595007355
2412500	2361.10982760944
2413333	2415.08370514532
2414167	2467.05755132171
2415000	2516.0314288576
2415833	2562.00530639348
2416667	2605.97915256987
2417500	2645.95303010576
2418333	2681.92690764165
2419167	2714.90075381803
2420000	2743.87463135392
2420833	2767.84850888981
2421667	2788.82235506619
2422500	2804.79623260208
2423333	2815.77011013797
2424167	2822.74395631435
2425000	2823.71783385024
2425833	2821.69171138613
2426667	2813.66555756252
2427500	2801.6394350984
2428333	2784.61331263429
2429167	2762.58715881068
2430000	2736.56103634656
2430833	2706.53491388245
2431667	2671.50876005884
2432500	2632.48263759473
2433333	2590.45651513061
2434167	2543.430361307
2435000	2493.40423884289
2435833	2441.37811637877
2436667	2384.35196255516
2437500	2325.32584009105
2438333	2264.29971762694
2439167	2201.27356380332
2440000	2136.24744133921
2440833	2070.2213188751
2441667	2002.19516505148
2442500	1933.16904258737
2443333	1863.14292012326
2444167	1793.11676629965
2445000	1722.09064383553
2445833	1652.06452137142
2446667	1582.03836754781
2447500	1512.01224508369
2448333	1442.98612261958
2449167	1374.95996879597
2450000	1308.93384633186
2450833	1242.90772386774
2451667	1178.88157004413
2452500	1115.85544758002
2453333	1054.8293251159
2454167	995.80317129229
2455000	938.777048828178
2455833	883.750926364065
2456667	830.724772540452
2457500	779.698650076339
2458333	731.672527612226
2459167	684.646373788613
2460000	640.6202513245
2460833	597.594128860388
2461667	557.567975036774
2462500	518.541852572661
2463333	481.515730108549
2464167	447.489576284935
2465000	414.463453820823
2465833	383.43733135671
2466667	354.411177533097
2467500	328.385055068984
2468333	302.358932604871
2469167	278.332778781258
2470000	256.306656317145
2470833	236.280533853033
2471667	217.254380029419
2472500	199.228257565307
2473333	183.202135101194
2474167	167.175981277581
2475000	153.149858813468
2475833	140.123736349355
2476667	128.097582525742
2477500	117.071460061629
2478333	106.045337597517
2479167	96.0191837739032
2480000	87.9930613097905
2480833	79.9669388456779
2481667	72.9407850220645
2482500	65.9146625579518
2483333	60.8885400938392
2484167	55.8623862702258
2485000	51.8362638061131
2485833	46.8101413420005
2486667	42.7839875183871
2487500	38.7578650542744
2488333	34.7317425901618
2489167	31.7055887665484
2490000	28.6794663024357
2490833	26.653343838323
2491667	23.6271900147097
2492500	21.601067550597
2493333	19.5749450864843
2494167	17.5487912628709
2495000	15.5226687987583
2495833	14.4965463346456
2496667	12.4703925110322
2497500	11.4442700469196
2498333	9.41814758280693
2499167	8.39199375919353
2500000	7.36587129508088
2500833	7.33974883096822
2501667	6.31359500735483
2502500	5.28747254324217
2503333	4.26135007912951
2504167	3.23519625551612
2505000	3.20907379140346
2505833	3.18295132729081
2506667	2.15679750367741
2507500	1.13067503956476
2508333	1.1045525754521
2509167	1.07839875183871
2510000	0.0522762877260483
2510833	0.0261538236133916
2511667	0
2512500	-0.95728205128205
2513333	-0.914564102564103
2514167	-0.871794871794872
2515000	-0.829076923076922
2515833	-0.786358974358976
2516667	-1.74358974358974
2517500	-1.70087179487179
2518333	-1.65815384615385
2519167	-1.61538461538462
2520000	-1.57266666666667
2520833	-1.52994871794872
2521667	-1.48717948717949
2522500	-1.44446153846154
2523333	-1.40174358974359
2524167	-2.35897435897436
2525000	-2.31625641025641
2525833	-2.27353846153846
2526667	-2.23076923076923
2527500	-2.18805128205128
2528333	-2.14533333333333
2529167	-2.1025641025641
2530000	-2.05984615384615
2530833	-3.01712820512821
2531667	-2.97435897435897
2532500	-2.93164102564102
2533333	-2.88892307692308
2534167	-2.84615384615385
2535000	-2.8034358974359
2535833	-2.76071794871795
2536667	-2.71794871794872
2537500	-2.67523076923077
2538333	-2.63251282051282
2539167	-1.58974358974359
2540000	-1.54702564102564
2540833	-2.50430769230769
2541667	-2.46153846153846
2542500	-2.41882051282051
2543333	-2.37610256410256
2544167	-2.33333333333333
2545000	-2.29061538461539
2545833	-2.24789743589744
2546667	-2.2051282051282
2547500	-2.16241025641026
2548333	-2.11969230769231
2549167	-2.07692307692308
2550000	-2.03420512820513
2550833	-1.99148717948718
2551667	-0.948717948717949
2552500	-1.906
2553333	-1.86328205128205
2554167	-1.82051282051282
2555000	-2.77779487179487
2555833	-2.73507692307692
2556667	-2.69230769230769
2557500	-2.64958974358974
2558333	-1.60687179487179
2559167	-1.56410256410257
2560000	-1.52138461538462
2560833	-2.47866666666667
2561667	-2.43589743589743
2562500	-2.39317948717949
2563333	-1.35046153846154
2564167	-2.30769230769231
2565000	-2.26497435897436
2565833	-2.22225641025641
2566667	-2.17948717948718
2567500	-1.13676923076923
2568333	-2.09405128205128
2569167	-2.05128205128205
2570000	-2.0085641025641
2570833	-1.96584615384615
2571667	-1.92307692307692
2572500	-0.880358974358973
2573333	-0.837641025641027
2574167	-0.794871794871796
2575000	-0.752153846153846
2575833	-0.709435897435899
2576667	-0.666666666666668
2577500	-0.623948717948718
2578333	-0.581230769230771
2579167	-0.53846153846154
2580000	-0.49574358974359
2580833	-0.45302564102564
2581667	-0.410256410256409
2582500	-0.367538461538462
2583333	-0.324820512820512
2584167	-0.282051282051281
2585000	-1.23933333333333
2585833	-1.19661538461538
2586667	-0.153846153846153
2587500	-0.111128205128203
2588333	-0.0684102564102567
2589167	-0.0256410256410256
2590000	0.017076923076921
2590833	0.0597948717948711
2591667	0.102564102564102
2592500	0.145282051282052
2593333	-0.812000000000001
2594167	0.23076923076923
2595000	0.27348717948718
2595833	0.316205128205127
2596667	0.358974358974358
2597500	0.401692307692308
2598333	0.444410256410258
2599167	0.487179487179489
2600000	0.529897435897436
2600833	0.572615384615386
2601667	-0.384615384615387
2602500	-0.341897435897437
2603333	-0.299179487179487
2604167	-0.256410256410256
2605000	-0.213692307692309
2605833	-0.170974358974359
2606667	-0.128205128205128
2607500	-0.0854871794871812
2608333	-0.0427692307692311
2609167	0
2610000	0
2610833	0
2611667	0
2612500	1
2613333	1
2614167	1
2615000	1
2615833	1
2616667	2
2617500	2
2618333	1
2619167	1
2620000	1
2620833	0
2621667	0
2622500	0
2623333	0
2624167	0
2625000	0
2625833	0
2626667	-1
2627500	-1
2628333	-1
2629167	-1
2630000	-1
2630833	-1
2631667	-1
2632500	-1
2633333	-1
2634167	-1
2635000	-1
2635833	-1
2636667	-1
2637500	0
2638333	0
2639167	0
2640000	0
2640833	0
2641667	1
2642500	1
2643333	1
2644167	0
2645000	1
2645833	1
2646667	1
2647500	1
2648333	0
2649167	0
2650000	0
2650833	0
2651667	-1
2652500	-1
2653333	-1
2654167	-1
2655000	-1
2655833	-1
2656667	0
2657500	0
2658333	0
2659167	0
2660000	0
2660833	0
2661667	0
2662500	0
2663333	0
2664167	0
2665000	0
2665833	0
2666667	0
2667500	0
2668333	-1
2669167	0
2670000	0
2670833	0
2671667	0
2672500	0
2673333	0
2674167	0
2675000	0
2675833	-1
2676667	-1
2677500	-1
2678333	-1
2679167	-1
2680000	-1
2680833	0
2681667	-1
2682500	-1
2683333	-1
2684167	-1
2685000	0
2685833	0
2686667	0
2687500	0
2688333	0
2689167	0
2690000	0
2690833	0
2691667	0
2692500	0
2693333	0
2694167	0
2695000	0
2695833	0
2696667	0
2697500	-1
2698333	-1
2699167	0
2700000	0
2700833	0
2701667	0
2702500	0
2703333	0
2704167	0
2705000	0
2705833	0
2706667	0
2707500	-0.0170871794871807
2708333	-0.0341743589743579
2709167	-0.0512820512820511
2710000	-0.0683692307692318
2710833	-1.08545641025641
2711667	-0.102564102564102
2712500	-0.119651282051283
2713333	-0.13673846153846
2714167	-0.153846153846153
2715000	-0.170933333333334
2715833	-0.188020512820511
2716667	-0.205128205128204
2717500	-0.222215384615385
2718333	-0.239302564102562
2719167	-0.256410256410256
2720000	-0.273497435897436
2720833	-0.290584615384617
2721667	-0.307692307692307
2722500	-0.324779487179487
2723333	-0.341866666666668
2724167	-0.358974358974358
2725000	-0.376061538461538
2725833	-0.393148717948719
2726667	-0.410256410256409
2727500	-0.42734358974359
2728333	0.55556923076923
2729167	0.53846153846154
2730000	-0.478625641025641
2730833	-0.495712820512821
2731667	-0.512820512820511
2732500	-0.529907692307692
2733333	-0.546994871794872
2734167	-0.564102564102566
2735000	-0.581189743589743
2735833	-0.598276923076924
2736667	0.384615384615383
2737500	-0.632471794871794
2738333	-0.649558974358975
2739167	-0.666666666666668
2740000	0.316246153846155
2740833	0.299158974358974
2741667	-0.717948717948719
2742500	-0.735035897435896
2743333	-0.752123076923077
2744167	-0.76923076923077
2745000	-0.786317948717947
2745833	-0.803405128205128
2746667	-0.820512820512821
2747500	-0.837599999999998
2748333	-0.854687179487179
2749167	-0.871794871794872
2750000	-0.888882051282053
2750833	-0.90596923076923
2751667	-1.92307692307692
2752500	-1.9401641025641
2753333	-1.95725128205128
2754167	-0.974358974358974
2755000	-0.991446153846155
2755833	-1.00853333333333
2756667	-1.02564102564103
2757500	-1.04272820512821
2758333	-1.05981538461538
2759167	-2.07692307692308
2760000	-2.09401025641026
2760833	-2.11109743589743
2761667	-2.12820512820513
2762500	-2.14529230769231
2763333	-2.16237948717949
2764167	-2.17948717948718
2765000	-2.19657435897436
2765833	-2.21366153846154
2766667	-2.23076923076923
2767500	-2.24785641025641
2768333	-1.26494358974359
2769167	-1.28205128205128
2770000	-1.29913846153846
2770833	-1.31622564102564
2771667	-0.333333333333332
2772500	-0.350420512820513
2773333	-0.367507692307694
2774167	-0.384615384615383
2775000	-0.401702564102564
2775833	0.581210256410255
2776667	0.564102564102566
2777500	0.547015384615385
2778333	0.529928205128204
2779167	0.512820512820511
2780000	-0.504266666666666
2780833	-0.521353846153847
2781667	-0.53846153846154
2782500	-0.555548717948717
2783333	-0.572635897435898
2784167	-0.589743589743591
2785000	-0.606830769230768
2785833	-0.623917948717949
2786667	-0.641025641025642
2787500	-0.65811282051282
2788333	-0.6752
2789167	-0.692307692307693
2790000	-0.709394871794871
2790833	-0.726482051282051
2791667	-0.743589743589745
2792500	-0.760676923076922
2793333	-0.777764102564102
2794167	-0.794871794871796
2795000	0.188041025641027
2795833	0.170953846153846
2796667	0.153846153846153
2797500	0.136758974358976
2798333	0.119671794871795
2799167	0.102564102564102
2800000	0.0854769230769215
2800833	0.0683897435897443
2801667	0.0512820512820511
2802500	0.0341948717948704
2803333	0.0171076923076932
2804167	0
2805000	-0.0127608727844652
2805833	-0.0255217455689269
2806667	-0.0382979375284052
2807500	-0.0510588103128669
2808333	-0.0638196830973321
2809167	-0.0765958750568103
2810000	-0.089356747841272
2810833	-0.102117620625737
2811667	-0.114893812585212
2812500	-0.127654685369677
2813333	-0.140415558154142
2814167	-0.153191750113617
2815000	-0.165952622898082
2815833	-0.178713495682548
2816667	-0.191489687642022
2817500	-1.20425056042649
2818333	-1.21701143321095
2819167	-0.229787625170427
2820000	-0.242548497954889
2820833	-0.255309370739354
2821667	-0.268085562698829
2822500	-0.280846435483294
2823333	-0.293607308267759
2824167	-0.306383500227234
2825000	-0.319144373011699
2825833	-1.33190524579616
2826667	-1.34468143775564
2827500	-1.3574423105401
2828333	-1.37020318332457
2829167	-1.38297937528404
2830000	-1.39574024806851
2830833	-1.40850112085297
2831667	-1.42127731281245
2832500	-1.43403818559691
2833333	-0.446799058381377
2834167	-0.459575250340851
2835000	-1.47233612312532
2835833	-1.48509699590978
2836667	-1.49787318786926
2837500	-1.51063406065372
2838333	-1.52339493343818
2839167	-1.53617112539766
2840000	-1.54893199818212
2840833	-1.56169287096659
2841667	-1.57446906292606
2842500	-1.58722993571053
2843333	-1.59999080849499
2844167	-1.61276700045447
2845000	-1.62552787323893
2845833	-1.6382887460234
2846667	-1.65106493798287
2847500	-1.66382581076734
2848333	-1.6765866835518
2849167	-0.689362875511279
2850000	-0.70212374829574
2850833	-0.714884621080206
2851667	-0.72766081303968
2852500	-1.74042168582415
2853333	-1.75318255860861
2854167	-1.76595875056809
2855000	-0.778719623352551
2855833	-0.791480496137016
2856667	-0.804256688096491
2857500	-0.817017560880956
2858333	-0.829778433665417
2859167	-0.842554625624896
2860000	-1.85531549840936
2860833	-1.86807637119382
2861667	-1.8808525631533
2862500	-1.89361343593776
2863333	-1.90637430872223
2864167	-1.9191505006817
2865000	-0.931911373466168
2865833	-0.944672246250633
2866667	-0.957448438210108
2867500	-0.970209310994573
2868333	-0.982970183779035
2869167	-0.995746375738513
2870000	-1.00850724852297
2870833	-1.02126812130744
2871667	-1.03404431326692
2872500	-1.04680518605138
2873333	-1.05956605883584
2874167	-1.07234225079532
2875000	-1.08510312357978
2875833	-1.09786399636425
2876667	-1.11064018832372
2877500	-1.12340106110819
2878333	-1.13616193389265
2879167	-2.14893812585213
2880000	-2.1616989986366
2880833	-2.17445987142106
2881667	-2.18723606338054
2882500	-2.199996936165
2883333	-2.21275780894946
2884167	-2.22553400090894
2885000	-2.2382948736934
2885833	-2.25105574647787
2886667	-2.26383193843734
2887500	-1.27659281122181
2888333	-2.28935368400627
2889167	-2.30212987596575
2890000	-1.31489074875021
2890833	-1.32765162153467
2891667	-1.34042781349415
2892500	-1.35318868627861
2893333	-1.36594955906308
2894167	-1.37872575102255
2895000	-1.39148662380702
2895833	-1.40424749659148
2896667	-2.41702368855096
2897500	-2.42978456133542
2898333	-2.44254543411989
2899167	-2.45532162607936
2900000	-2.46808249886383
2900833	-2.48084337164829
2901667	-2.49361956360777
2902500	-2.50638043639223
2903333	-2.5191413091767
2904167	-2.53191750113617
2905000	-2.54467837392064
2905833	-1.5574392467051
2906667	-1.57021543866458
2907500	-2.58297631144904
2908333	-1.59573718423351
2909167	-1.60851337619298
2910000	-2.62127424897745
2910833	-1.63403512176191
2911667	-2.64681131372139
2912500	-1.65957218650585
2913333	-1.67233305929031
2914167	-2.68510925124979
2915000	-2.69787012403425
2915833	-2.71063099681872
2916667	-2.72340718877819
2917500	-1.73616806156266
2918333	-1.74892893434712
2919167	-2.7617051263066
2920000	-2.77446599909106
2920833	-2.78722687187553
2921667	-2.800003063835
2922500	-2.81276393661947
2923333	-2.82552480940393
2924167	-2.8383010013634
2925000	-2.85106187414787
2925833	-2.86382274693234
2926667	-2.87659893889181
2927500	-1.88935981167628
2928333	-1.90212068446074
2929167	-1.91489687642022
2930000	-1.92765774920468
2930833	-1.94041862198914
2931667	-1.95319481394862
2932500	-1.96595568673308
2933333	-1.97871655951755
2934167	-1.99149275147703
2935000	-2.00425362426149
2935833	-2.01701449704595
2936667	-2.02979068900543
2937500	-2.04255156178989
2938333	-2.05531243457436
2939167	-3.06808862653383
2940000	-3.0808494993183
2940833	-2.09361037210276
2941667	-2.10638656406224
2942500	-2.1191474368467
2943333	-2.13190830963116
2944167	-2.14468450159064
2945000	-2.1574453743751
2945833	-2.17020624715957
2946667	-2.18298243911904
2947500	-2.19574331190351
2948333	-2.20850418468797
2949167	-2.22128037664745
2950000	-2.23404124943191
2950833	-2.24680212221638
2951667	-2.25957831417585
2952500	-2.27233918696032
2953333	-2.28510005974478
2954167	-2.29787625170426
2955000	-2.31063712448872
2955833	-2.32339799727319
2956667	-2.33617418923266
2957500	-2.34893506201713
2958333	-2.36169593480159
2959167	-2.37447212676107
2960000	-2.38723299954553
2960833	-3.39999387233
2961667	-3.41277006428947
2962500	-3.42553093707394
2963333	-3.4382918098584
2964167	-2.45106800181788
2965000	-2.46382887460234
2965833	-2.4765897473868
2966667	-1.48936593934628
2967500	-1.50212681213074
2968333	-0.514887684915209
2969167	-0.527663876874684
2970000	-0.540424749659149
2970833	-0.553185622443614
2971667	-0.565961814403089
2972500	-0.578722687187554
2973333	-1.59148355997202
2974167	-1.60425975193149
2975000	-1.61702062471596
2975833	-1.62978149750042
2976667	-1.6425576894599
2977500	-1.65531856224436
2978333	-1.66807943502883
2979167	-1.6808556269883
2980000	-1.69361649977277
2980833	-1.70637737255723
2981667	-1.71915356451671
2982500	-1.73191443730117
2983333	-1.74467531008563
2984167	-1.75745150204511
2985000	-1.77021237482958
2985833	-0.782973247614038
2986667	-0.795749439573513
2987500	-0.808510312357978
2988333	-0.821271185142443
2989167	-0.834047377101918
2990000	-0.846808249886383
2990833	-0.859569122670848
2991667	-0.872345314630323
2992500	-0.885106187414788
2993333	-0.897867060199253
2994167	-0.910643252158728
2995000	-0.92340412494319
2995833	-0.936164997727655
2996667	-0.948941189687133
2997500	-0.961702062471595
2998333	-0.97446293525606
2999167	0.0127608727844652
3000000	0
