R.Time (min)	Intensity
0	0
833	0.0172344233295747
1667	-0.965510463757022
2500	-0.948276040427447
3333	-1.93104161709787
4167	-1.91378650418447
5000	-2.89655208085489
5833	-2.87931765752532
6667	-2.86206254461192
7500	-2.84482812128234
8333	-2.82759369795277
9167	-2.81033858503936
10000	-2.79310416170979
10833	-2.77586973838021
11667	-2.75861462546681
12500	-2.74138020213723
13333	-2.72414577880766
14167	-2.70689066589426
15000	-2.68965624256468
15833	-2.67242181923511
16667	-2.6551667063217
17500	-2.63793228299213
18333	-1.62069785966255
19167	-1.60344274674915
20000	-1.58620832341957
20833	-0.56897390009
21667	-0.551718787176596
22500	-0.534484363847021
23333	-0.517249940517446
24167	0.500005172395957
25000	-0.482760404274468
25833	-0.465525980944893
26667	-0.44827086803149
27500	-0.431036444701915
28333	-1.41380202137234
29167	-1.39654690845894
30000	-0.379312485129362
30833	-0.362078061799787
31667	0.655177051113617
32500	0.672411474443192
33333	1.68964589777277
34167	1.70690101068617
35000	1.72413543401574
35833	0.741369857345319
36667	0.758624970258723
37500	-0.224140606411702
38333	-1.20690618308213
39167	-1.18965107016872
40000	-1.17241664683915
40833	-2.15518222350957
41667	-2.13792711059617
42500	-2.1206926872666
43333	-2.10345826393702
44167	-2.08620315102362
45000	-2.06896872769404
45833	-2.05173430436447
46667	-3.03447919145106
47500	-3.01724476812149
48333	-3.00001034479191
49167	-2.98275523187851
50000	-2.96552080854894
50833	-2.94828638521936
51667	-1.93103127230596
52500	-1.91379684897638
53333	-1.89656242564681
54167	-1.8793073127334
55000	-1.86207288940383
55833	-1.84483846607425
56667	-1.82758335316085
57500	-1.81034892983128
58333	-1.7931145065017
59167	-1.7758593935883
60000	-1.75862497025872
60833	-1.74139054692915
61667	-1.72413543401574
62500	-1.70690101068617
63333	-0.689666587356595
64167	-0.672411474443191
65000	-0.655177051113617
65833	0.362057372215958
66667	0.379312485129362
67500	0.396546908458936
68333	0.413781331788511
69167	-0.568963555298085
70000	0.44827086803149
70833	0.465505291361064
71667	0.482760404274468
72500	0.499994827604043
73333	0.517229250933617
74167	-0.465515636152979
75000	-0.448281212823404
75833	-0.431046789493829
76667	-0.413791676580425
77500	-0.396557253250851
78333	-0.379322829921276
79167	-0.362067717007872
80000	-0.344833293678298
80833	0.672401129651277
81667	0.689656242564681
82500	0.706890665894256
83333	-0.27587491077617
84167	-0.258619797862766
85000	-0.241385374533191
85833	-0.224150951203617
86667	-0.206895838290213
87500	-0.189661414960638
88333	-0.172426991631063
89167	-0.15517187871766
90000	-0.137937455388085
90833	-0.12070303205851
91667	-0.103447919145106
92500	-0.0862134958155316
93333	-0.0689790724859569
94167	0.948276040427447
95000	0.965510463757022
95833	0.982744887086596
96667	0
97500	-0.00861730080897105
98333	-0.0172346016179422
99167	-0.0258622473258436
100000	-0.0344795481348147
100833	-0.0430968489437858
101667	-1.05172449465169
102500	-1.06034179546066
103333	-1.06895909626963
104167	-1.07758674197753
105000	-1.0862040427865
105833	-0.0948213435954731
106667	-0.103448989303375
107500	-0.112066290112346
108333	-0.120683590921317
109167	-0.129311236629218
110000	-0.137928537438189
110833	-0.14654583824716
111667	-0.155173483955062
112500	-0.163790784764033
113333	-0.172408085573004
114167	-0.181035731280905
115000	-0.189653032089876
115833	-0.198270332898848
116667	-0.206897978606749
117500	-0.21551527941572
118333	-0.224132580224691
119167	-0.232760225932593
120000	-0.241377526741564
120833	-1.24999482755053
121667	-1.25862247325844
122500	-1.26723977406741
123333	-1.27585707487638
124167	-1.28448472058428
125000	-1.29310202139325
125833	-1.30171932220222
126667	-0.310346967910124
127500	-0.318964268719095
128333	-0.327581569528066
129167	-0.336209215235967
130000	-0.344826516044938
130833	0.646556183146091
131667	0.637928537438189
132500	-0.370688763370782
133333	-0.379306064179753
134167	-0.387933709887654
135000	-0.396551010696625
135833	-0.405168311505597
136667	-0.413795957213498
137500	-0.422413258022469
138333	0.56896944116856
139167	0.560341795460658
140000	0.551724494651687
140833	0.543107193842716
141667	0.534479548134815
142500	0.525862247325844
143333	0.517244946516872
144167	0.508617300808971
145000	0.5
145833	0.491382699191029
146667	0.482755053483127
147500	0.474137752674156
148333	0.465520451865185
149167	0.456892806157284
150000	0.448275505348313
150833	0.439658204539342
151667	0.43103055883144
152500	0.422413258022469
153333	0.413795957213498
154167	0.405168311505597
155000	0.396551010696625
155833	0.387933709887654
156667	0.379306064179753
157500	0.370688763370782
158333	0.362071462561811
159167	0.353443816853909
160000	0.344826516044938
160833	0.336209215235967
161667	0.327581569528066
162500	0.318964268719095
163333	0.310346967910124
164167	0.301719322202222
165000	0.293102021393251
165833	0.28448472058428
166667	0.275857074876378
167500	0.267239774067407
168333	0.258622473258436
169167	0.249994827550535
170000	0.241377526741564
170833	-0.767239774067407
171667	-0.775867419775309
172500	0.21551527941572
173333	-0.793102021393251
174167	-0.801729667101152
175000	-0.810346967910124
175833	-0.818964268719095
176667	0.172408085573004
177500	0.163790784764033
178333	0.155173483955062
179167	0.14654583824716
180000	0.137928537438189
180833	0.129311236629218
181667	0.120683590921317
182500	-0.887933709887654
183333	-0.896551010696625
184167	-0.905178656404527
185000	-0.913795957213498
185833	-0.922413258022469
186667	-0.931040903730371
187500	-0.939658204539342
188333	-0.948275505348313
189167	-0.956903151056214
190000	-0.965520451865185
190833	0.0258622473258436
191667	0.0172346016179422
192500	0.00861730080897105
193333	0
194167	0
195000	0
195833	0
196667	0
197500	1
198333	1
199167	1
200000	1
200833	1
201667	1
202500	1
203333	1
204167	1
205000	1
205833	1
206667	1
207500	1
208333	1
209167	1
210000	1
210833	1
211667	1
212500	1
213333	1
214167	2
215000	2
215833	1
216667	1
217500	1
218333	1
219167	1
220000	1
220833	1
221667	1
222500	1
223333	0
224167	0
225000	1
225833	1
226667	1
227500	1
228333	1
229167	0
230000	0
230833	1
231667	1
232500	1
233333	1
234167	0
235000	0
235833	0
236667	1
237500	2
238333	2
239167	2
240000	2
240833	1
241667	1
242500	0
243333	0
244167	0
245000	0
245833	1
246667	1
247500	1
248333	1
249167	1
250000	1
250833	1
251667	1
252500	1
253333	1
254167	1
255000	1
255833	1
256667	1
257500	1
258333	1
259167	1
260000	1
260833	1
261667	1
262500	1
263333	1
264167	1
265000	1
265833	0
266667	0
267500	0
268333	1
269167	1
270000	1
270833	1
271667	0
272500	0
273333	0
274167	0
275000	0
275833	0
276667	0
277500	0
278333	0
279167	0
280000	1
280833	1
281667	0
282500	0
283333	0
284167	0
285000	0
285833	0
286667	0
287500	0
288333	0
289167	0
290000	0
290833	0
291667	0
292500	0
293333	-1
294167	0
295000	0
295833	0
296667	0
297500	0
298333	0
299167	0
300000	0
300833	0
301667	0
302500	0
303333	0
304167	0
305000	0
305833	0
306667	0
307500	0
308333	0
309167	0
310000	0
310833	0
311667	0
312500	0
313333	0
314167	0
315000	-1
315833	0
316667	0
317500	0
318333	-1
319167	-1
320000	-1
320833	-1
321667	0
322500	0
323333	0
324167	0
325000	0
325833	0
326667	0
327500	0
328333	0
329167	0
330000	0
330833	0
331667	0
332500	0
333333	0
334167	0
335000	0
335833	0
336667	0
337500	0
338333	0
339167	0
340000	0
340833	0
341667	0
342500	0
343333	-1
344167	-1
345000	-1
345833	-1
346667	0
347500	0
348333	0
349167	1
350000	1
350833	1
351667	1
352500	0
353333	0
354167	0
355000	0
355833	-1
356667	-1
357500	-1
358333	-1
359167	-1
360000	-1
360833	0
361667	0
362500	1
363333	1
364167	1
365000	1
365833	1
366667	1
367500	1
368333	1
369167	1
370000	1
370833	0
371667	0
372500	0
373333	0
374167	1
375000	1
375833	0
376667	0
377500	0
378333	1
379167	1
380000	1
380833	1
381667	1
382500	1
383333	1
384167	1
385000	1
385833	1
386667	0
387500	-0.0086173008089711
388333	-0.0172346016179422
389167	0.974137752674156
390000	0.965520451865185
390833	0.956903151056214
391667	0.948275505348313
392500	0.939658204539342
393333	0.931040903730371
394167	0.922413258022469
395000	0.913795957213498
395833	-0.0948213435954731
396667	-0.103448989303375
397500	-0.112066290112346
398333	-0.120683590921317
399167	-0.129311236629218
400000	-0.137928537438189
400833	-0.14654583824716
401667	-0.155173483955062
402500	-0.163790784764033
403333	-0.172408085573004
404167	-0.181035731280905
405000	-0.189653032089876
405833	-0.198270332898848
406667	-0.206897978606749
407500	-0.21551527941572
408333	0.775867419775309
409167	0.767239774067407
410000	0.758622473258436
410833	0.750005172449465
411667	-0.258622473258436
412500	-0.267239774067407
413333	-0.275857074876378
414167	-0.28448472058428
415000	-0.293102021393251
415833	-0.301719322202222
416667	-0.310346967910124
417500	-0.318964268719095
418333	-0.327581569528066
419167	-0.336209215235967
420000	-0.344826516044938
420833	-0.353443816853909
421667	-0.362071462561811
422500	-0.370688763370782
423333	-0.379306064179753
424167	-0.387933709887654
425000	-0.396551010696626
425833	-0.405168311505597
426667	-0.413795957213498
427500	-0.422413258022469
428333	-0.43103055883144
429167	-0.439658204539342
430000	-0.448275505348313
430833	-0.456892806157284
431667	-0.465520451865185
432500	-0.474137752674156
433333	-0.482755053483127
434167	-0.491382699191029
435000	-0.5
435833	-0.508617300808971
436667	-0.517244946516873
437500	-0.525862247325844
438333	-0.534479548134815
439167	-0.543107193842716
440000	-0.551724494651687
440833	-0.560341795460658
441667	-0.56896944116856
442500	-0.577586741977531
443333	-0.586204042786502
444167	0.405168311505597
445000	0.396551010696625
445833	0.387933709887654
446667	-0.620693935820247
447500	-0.629311236629218
448333	-0.637928537438189
449167	-0.646556183146091
450000	-0.655173483955062
450833	-0.663790784764033
451667	-0.672418430471934
452500	-0.681035731280905
453333	-0.689653032089876
454167	-0.698280677797778
455000	-0.706897978606749
455833	-0.71551527941572
456667	-0.724142925123622
457500	-0.732760225932593
458333	-1.74137752674156
459167	-0.750005172449465
460000	-0.758622473258436
460833	-0.767239774067407
461667	-0.775867419775309
462500	-0.78448472058428
463333	-0.793102021393251
464167	-0.801729667101152
465000	-0.810346967910124
465833	-0.818964268719095
466667	-0.827591914426996
467500	-0.836209215235967
468333	-0.844826516044938
469167	-0.85345416175284
470000	-0.862071462561811
470833	-0.870688763370782
471667	-0.879316409078683
472500	-0.887933709887654
473333	-0.896551010696625
474167	-0.905178656404527
475000	-0.913795957213498
475833	-0.922413258022469
476667	0.0689590962696295
477500	0.0603417954606583
478333	0.0517244946516873
479167	0.0430968489437858
480000	0.0344795481348147
480833	0.0258622473258436
481667	0.0172346016179422
482500	0.00861730080897105
483333	0
484167	0.00862755645670188
485000	-0.982755231878511
485833	0.0258619797862766
486667	0.0344895362429785
487500	0.0431067479077658
488333	0.0517239595725532
489167	0.060351516029255
490000	0.0689687276940424
490833	0.0775859393588298
491667	0.0862134958155316
492500	0.0948307074803191
493333	0.103447919145106
494167	1.11207547560181
495000	1.1206926872666
495833	1.12930989893138
496667	1.13793745538809
497500	1.14655466705287
498333	1.15517187871766
499167	1.16379943517436
500000	1.17241664683915
500833	1.18103385850394
501667	0.189661414960638
502500	0.198278626625425
503333	0.206895838290213
504167	0.215523394746915
505000	0.224140606411702
505833	0.232757818076489
506667	0.241385374533191
507500	0.250002586197979
508333	0.258619797862766
509167	0.267247354319468
510000	0.275864565984255
510833	0.284481777649043
511667	0.293109334105744
512500	0.301726545770532
513333	0.310343757435319
514167	0.318971313892021
515000	0.327588525556809
515833	0.336205737221596
516667	0.344833293678298
517500	0.353450505343085
518333	0.362067717007872
519167	0.370695273464574
520000	-0.620687514870638
520833	-0.612070303205851
521667	-0.603442746749149
522500	-0.594825535084362
523333	0.413791676580426
524167	-0.577580766962873
525000	-0.568963555298085
525833	-0.560346343633298
526667	-0.551718787176596
527500	-0.543101575511809
528333	-0.534484363847021
529167	-0.525856807390319
530000	-0.517239595725532
530833	-0.508622384060745
531667	-0.499994827604043
532500	-0.491377615939255
533333	-0.482760404274468
534167	-0.474132847817766
535000	-0.465515636152979
535833	-0.456898424488191
536667	-0.44827086803149
537500	-0.439653656366702
538333	-0.431036444701915
539167	-0.422408888245213
540000	-0.413791676580426
540833	-0.405174464915638
541667	-0.396546908458936
542500	-0.387929696794149
543333	-0.379312485129362
544167	-0.37068492867266
545000	-0.362067717007872
545833	-0.353450505343085
546667	-0.344822948886383
547500	-0.336205737221596
548333	-0.327588525556808
549167	-0.318960969100107
550000	0.689656242564681
550833	0.698273454229468
551667	-0.29309898931383
552500	-0.284481777649043
553333	-0.275864565984255
554167	-0.267237009527553
555000	-0.258619797862766
555833	-0.250002586197979
556667	-0.241375029741277
557500	-0.232757818076489
558333	-0.224140606411702
559167	0.784486950045
560000	0.793104161709787
560833	0.801721373374575
561667	0.810348929831276
562500	0.818966141496064
563333	0.827583353160851
564167	0.836210909617553
565000	0.84482812128234
565833	0.853445332947128
566667	0.86207288940383
567500	0.870690101068617
568333	1.8793073127334
569167	0.887934869190106
570000	0.896552080854894
570833	0.905169292519681
571667	0.913796848976383
572500	0.92241406064117
573333	0.931031272305958
574167	0.939658828762659
575000	0.948276040427447
575833	-0.0431067479077658
576667	-0.0344791914510639
577500	-0.0258619797862766
578333	-0.0172447681214892
579167	-0.00861721166478735
580000	0
580833	0.0228480522241194
581667	0.0457235330823613
582500	0.0685715853064807
583333	0.0914196375306001
584167	0.114295118388842
585000	0.137143170612961
585833	1.15999122283708
586667	1.18286670369532
587500	1.20571475591944
588333	1.22856280814356
589167	1.2514382890018
590000	1.27428634122592
590833	1.29713439345004
591667	1.32000987430828
592500	1.3428579265324
593333	1.36570597875652
594167	1.38858145961476
595000	2.41142951183888
595833	2.434277564063
596667	2.45715304492125
597500	2.48000109714536
598333	2.50284914936948
599167	2.52572463022773
600000	2.54857268245185
600833	2.57142073467597
601667	1.59429621553421
602500	1.61714426775833
603333	0.639992319982446
604167	0.662867800840688
605000	0.685715853064807
605833	0.708563905288926
606667	-0.268560613852832
607500	-0.245712561628712
608333	-0.222864509404593
609167	-0.199989028546351
610000	-1.17714097632223
610833	-1.15429292409811
611667	-1.13141744323987
612500	-2.10856939101575
613333	-3.08572133879163
614167	-5.06284585793339
615000	-7.03999780570927
615833	-11.0171497534852
616667	-15.9942742726269
617500	-24.9714262204028
618333	-38.9485781681787
619167	-58.9257026873204
620000	-88.9028546350963
620833	-132.880006582872
621667	-196.857131102014
622500	-287.83428304979
623333	-415.811434997566
624167	-591.788559516707
625000	-829.765711464483
625833	-1143.74286341226
626667	-1547.7199879314
627500	-2055.69713987918
628333	-2677.67429182695
629167	-3414.65141634609
630000	-4263.62856829387
630833	-5210.60572024165
631667	-6235.58284476079
632500	-7307.55999670856
633333	-8388.53714865634
634167	-9437.51427317548
635000	-10414.4914251233
635833	-11279.468577071
636667	-12000.4457015902
637500	-12551.422853538
638333	-12916.4000054857
639167	-13089.3771300049
640000	-13070.3542819526
640833	-12871.3314339004
641667	-12509.3085584196
642500	-12006.2857103673
643333	-11387.2628623151
644167	-10679.2399868343
645000	-9909.21713878203
645833	-9101.19429072981
646667	-8280.17141524895
647500	-7464.14856719672
648333	-6671.1257191445
649167	-5915.10284366364
650000	-5204.07999561142
650833	-4546.05714755919
651667	-3945.03427207834
652500	-3403.01142402611
653333	-2917.98857597389
654167	-2489.96570049303
655000	-2114.94285244081
655833	-1788.92000438858
656667	-1507.89712890772
657500	-1266.8742808555
658333	-1061.85143280328
659167	-887.828557322417
660000	-741.805709270193
660833	-618.782861217969
661667	-516.75998573711
662500	-430.737137684886
663333	-359.714289632662
664167	-300.691414151804
665000	-252.66856609958
665833	-211.645718047356
666667	-178.622842566497
667500	-151.599994514273
668333	-128.577146462049
669167	-109.554270981191
670000	-93.5314229289667
670833	-79.5085748767426
671667	-68.4856993958843
672500	-59.4628513436602
673333	-52.4400032914361
674167	-46.4171278105779
675000	-40.3942797583537
675833	-36.3714317061296
676667	-32.3485562252714
677500	-28.3257081730473
678333	-25.3028601208231
679167	-23.2799846399649
680000	-21.2571365877408
680833	-19.2342885355167
681667	-17.2114130546584
682500	-16.1885650024343
683333	-14.1657169502102
684167	-13.1428414693519
685000	-12.1199934171278
685833	-11.0971453649037
686667	-10.0742698840454
687500	-9.05142183182133
688333	-9.02857377959721
689167	-8.00569829873897
690000	-6.98285024651485
690833	-6.96000219429073
691667	-5.93712671343249
692500	-4.91427866120837
693333	-4.89143060898425
694167	-4.86855512812601
695000	-3.84570707590189
695833	-3.82285902367777
696667	-3.79998354281953
697500	-3.77713549059541
698333	-3.75428743837129
699167	-2.73141195751305
700000	-2.70856390528893
700833	-2.68571585306481
701667	-2.66284037220657
702500	-2.63999231998245
703333	-2.61714426775833
704167	-1.59426878690008
705000	-1.57142073467596
705833	-1.54857268245185
706667	-1.5256972015936
707500	-2.50284914936948
708333	-2.48000109714536
709167	-2.45712561628712
710000	-2.434277564063
710833	-2.41142951183888
711667	-2.38855403098064
712500	-1.36570597875652
713333	-1.3428579265324
714167	-1.31998244567416
715000	-1.29713439345004
715833	-1.27428634122592
716667	-1.25141086036768
717500	-1.22856280814356
718333	-1.20571475591944
719167	-1.1828392750612
720000	-1.15999122283708
720833	-0.137143170612962
721667	-0.114267689754719
722500	-0.0914196375306
723333	-0.0685715853064806
724167	-0.0456961044482389
725000	-0.0228480522241195
725833	0
726667	0.974117330629894
727500	0.948265695635532
728333	0.92241406064117
729167	0.896531391271064
730000	0.870679756276703
730833	0.84482812128234
731667	0.818945451912235
732500	0.793093816917873
733333	0.76724218192351
734167	0.741359512553405
735000	1.71550787755904
735833	1.68965624256468
736667	1.66377357319458
737500	1.63792193820021
738333	1.61207030320585
739167	1.58618763383575
740000	0.560335998841383
740833	0.534484363847021
741667	0.508601694476916
742500	0.482750059482553
743333	0.456898424488192
744167	0.431015755118086
745000	0.405164120123723
745833	0.379312485129362
746667	0.353429815759256
747500	0.327578180764894
748333	0.301726545770532
749167	0.275843876400426
750000	0.249992241406064
750833	0.224140606411702
751667	0.198257937041596
752500	0.172406302047234
753333	0.146554667052872
754167	0.120671997682766
755000	0.0948203626884045
755833	0.0689687276940423
756667	0.043086058323937
757500	0.0172344233295747
758333	-0.00861721166478713
759167	-0.0344998810348929
760000	-0.0603515160292551
760833	-0.086203151023617
761667	-0.112085820393723
762500	-0.137937455388085
763333	-0.163789090382447
764167	-0.189671759752553
765000	-0.215523394746914
765833	-0.241375029741277
766667	-0.267257699111382
767500	-0.293109334105744
768333	-0.318960969100107
769167	-0.344843638470212
770000	-0.370695273464574
770833	-0.396546908458936
771667	-0.422429577829042
772500	-0.448281212823404
773333	-0.474132847817766
774167	-0.500015517187872
775000	-0.525867152182234
775833	0.448281212823404
776667	0.422398543453299
777500	0.396546908458936
778333	0.370695273464574
779167	0.344812604094469
780000	0.318960969100107
780833	0.293109334105744
781667	0.267226664735639
782500	0.241375029741277
783333	0.215523394746914
784167	0.189640725376809
785000	0.163789090382447
785833	1.13793745538808
786667	1.11205478601798
787500	1.08620315102362
788333	1.06035151602926
789167	1.03446884665915
790000	1.00861721166479
790833	-0.0172344233295747
791667	-0.0431170926996804
792500	-0.0689687276940423
793333	-0.0948203626884045
794167	-0.12070303205851
795000	-0.146554667052872
795833	-0.172406302047234
796667	-0.19828897141734
797500	-0.224140606411702
798333	-0.249992241406064
799167	-0.27587491077617
800000	-0.301726545770532
800833	-0.327578180764894
801667	-0.353460850134999
802500	-0.379312485129362
803333	-0.405164120123723
804167	-0.431046789493829
805000	-0.456898424488192
805833	-0.482750059482553
806667	-0.508632728852659
807500	-0.534484363847021
808333	-0.560335998841383
809167	-0.586218668211489
810000	-0.612070303205851
810833	-0.637921938200213
811667	-0.663804607570319
812500	-0.689656242564681
813333	0.284492122440957
814167	0.258609453070851
815000	0.23275781807649
815833	0.206906183082127
816667	0.181023513712022
817500	0.15517187871766
818333	1.1293202437233
819167	1.10343757435319
820000	1.07758593935883
820833	1.05173430436447
821667	1.02585163499436
822500	0
823333	-0.00861721166478735
824167	-0.0172447681214892
825000	-0.0258619797862766
825833	-1.03447919145106
826667	-0.0431067479077658
827500	-0.0517239595725532
828333	-0.0603411712373405
829167	-0.0689687276940424
830000	0.92241406064117
830833	0.913796848976383
831667	0.905169292519681
832500	0.896552080854894
833333	0.887934869190106
834167	0.879307312733404
835000	0.870690101068617
835833	0.86207288940383
836667	0.853445332947128
837500	0.84482812128234
838333	0.836210909617553
839167	0.827583353160851
840000	0.818966141496064
840833	0.810348929831276
841667	0.801721373374575
842500	0.793104161709787
843333	0.784486950045
844167	0.775859393588298
845000	0.767242181923511
845833	0.758624970258723
846667	0.749997413802021
847500	0.741380202137234
848333	0.732762990472447
849167	0.724135434015745
850000	0.715518222350957
850833	0.70690101068617
851667	0.698273454229468
852500	0.689656242564681
853333	0.681039030899893
854167	1.67241147444319
855000	1.6637942627784
855833	0.655177051113617
856667	0.646549494656915
857500	0.637932282992128
858333	0.62931507132734
859167	0.620687514870638
860000	0.612070303205851
860833	0.603453091541064
861667	0.594825535084362
862500	1.58620832341957
863333	1.57759111175479
864167	1.56896355529809
865000	1.5603463436333
865833	1.55172913196851
866667	1.54310157551181
867500	1.53448436384702
868333	1.52586715218223
869167	1.51723959572553
870000	1.50862238406074
870833	1.50000517239596
871667	1.49137761593926
872500	0.482760404274468
873333	0.474143192609681
874167	0.465515636152979
875000	0.456898424488191
875833	0.448281212823404
876667	0.439653656366702
877500	0.431036444701915
878333	0.422419233037127
879167	1.41379167658043
880000	1.40517446491564
880833	1.39655725325085
881667	1.38792969679415
882500	1.37931248512936
883333	0.370695273464574
884167	0.362067717007872
885000	0.353450505343085
885833	0.344833293678298
886667	0.336205737221596
887500	0.327588525556808
888333	0.318971313892021
889167	-0.689656242564681
890000	-0.698273454229468
890833	-0.706890665894256
891667	-0.715518222350957
892500	-0.724135434015745
893333	0.267247354319468
894167	0.258619797862766
895000	0.250002586197979
895833	0.241385374533191
896667	0.232757818076489
897500	0.224140606411702
898333	0.215523394746915
899167	0.206895838290213
900000	0.198278626625425
900833	0.189661414960638
901667	0.181033858503936
902500	0.172416646839149
903333	0.163799435174361
904167	0.15517187871766
905000	0.146554667052872
905833	-0.862062544611915
906667	-0.870690101068617
907500	-0.879307312733404
908333	-0.887924524398192
909167	-0.896552080854894
910000	0.0948307074803191
910833	0.0862134958155316
911667	0.0775859393588298
912500	0.0689687276940424
913333	0.060351516029255
914167	0.0517239595725532
915000	0.0431067479077658
915833	0.0344895362429785
916667	0.0258619797862766
917500	0.0172447681214892
918333	0.00862755645670188
919167	0
920000	0
920833	0
921667	0
922500	0
923333	0
924167	0
925000	0
925833	-1
926667	-1
927500	-1
928333	-2
929167	-2
930000	-2
930833	-1
931667	-1
932500	-1
933333	-1
934167	-1
935000	-1
935833	-1
936667	-1
937500	-1
938333	-1
939167	-1
940000	-1
940833	-1
941667	-1
942500	-1
943333	-1
944167	-1
945000	-1
945833	-1
946667	-1
947500	-1
948333	-1
949167	-1
950000	-1
950833	-2
951667	-2
952500	-2
953333	-2
954167	-2
955000	-2
955833	-1
956667	-1
957500	-1
958333	-1
959167	-1
960000	-2
960833	-1
961667	-1
962500	-1
963333	-1
964167	0
965000	0
965833	0
966667	0
967500	0
968333	0
969167	0
970000	0
970833	0
971667	-1
972500	-1
973333	-1
974167	-1
975000	-1
975833	-1
976667	-1
977500	-1
978333	-1
979167	-1
980000	-1
980833	-2
981667	-2
982500	-2
983333	-2
984167	-2
985000	-2
985833	-1
986667	-1
987500	-1
988333	-1
989167	-1
990000	-1
990833	0
991667	0
992500	0
993333	0
994167	0
995000	0
995833	0
996667	0
997500	-1
998333	-1
999167	-1
1000000	-1
1000833	-1
1001667	-1
1002500	-1
1003333	-1
1004167	0
1005000	0
1005833	0
1006667	0
1007500	0
1008333	0
1009167	0
1010000	0
1010833	0
1011667	0
1012500	0
1013333	0
1014167	0
1015000	0
1015833	0
1016667	0.00862755645670187
1017500	0.0172447681214892
1018333	0.0258619797862766
1019167	-0.965510463757022
1020000	-0.956893252092234
1020833	-0.948276040427447
1021667	-0.939648483970745
1022500	0.0689687276940424
1023333	0.0775859393588298
1024167	0.0862134958155317
1025000	0.094830707480319
1025833	0.103447919145106
1026667	0.112075475601808
1027500	0.120692687266596
1028333	0.129309898931383
1029167	1.13793745538808
1030000	1.14655466705287
1030833	1.15517187871766
1031667	0.163799435174361
1032500	0.172416646839149
1033333	0.181033858503936
1034167	0.189661414960638
1035000	0.198278626625425
1035833	1.20689583829021
1036667	1.21552339474691
1037500	1.2241406064117
1038333	1.23275781807649
1039167	1.24138537453319
1040000	1.25000258619798
1040833	1.25861979786277
1041667	1.26724735431947
1042500	1.27586456598426
1043333	1.28448177764904
1044167	0.293109334105744
1045000	0.301726545770532
1045833	0.310343757435319
1046667	1.31897131389202
1047500	1.32758852555681
1048333	1.3362057372216
1049167	1.3448332936783
1050000	1.35345050534309
1050833	1.36206771700787
1051667	1.37069527346457
1052500	1.37931248512936
1053333	1.38792969679415
1054167	1.39655725325085
1055000	0.405174464915638
1055833	1.41379167658043
1056667	1.42241923303713
1057500	1.43103644470191
1058333	2.4396536563667
1059167	2.4482812128234
1060000	2.45689842448819
1060833	2.46551563615298
1061667	2.47414319260968
1062500	2.48276040427447
1063333	2.49137761593926
1064167	2.50000517239596
1065000	2.50862238406074
1065833	2.51723959572553
1066667	2.52586715218223
1067500	2.53448436384702
1068333	2.54310157551181
1069167	2.55172913196851
1070000	2.5603463436333
1070833	1.56896355529809
1071667	1.57759111175479
1072500	1.58620832341957
1073333	2.59482553508436
1074167	2.60345309154106
1075000	1.61207030320585
1075833	1.62068751487064
1076667	1.62931507132734
1077500	1.63793228299213
1078333	1.64654949465692
1079167	0.655177051113617
1080000	0.663794262778404
1080833	0.672411474443192
1081667	1.68103903089989
1082500	1.68965624256468
1083333	1.69827345422947
1084167	1.70690101068617
1085000	1.71551822235096
1085833	1.72413543401574
1086667	1.73276299047245
1087500	1.74138020213723
1088333	1.74999741380202
1089167	1.75862497025872
1090000	1.76724218192351
1090833	1.7758593935883
1091667	0.784486950045
1092500	0.793104161709787
1093333	0.801721373374575
1094167	0.810348929831276
1095000	0.818966141496064
1095833	0.827583353160851
1096667	1.83621090961755
1097500	1.84482812128234
1098333	1.85344533294713
1099167	0.86207288940383
1100000	0.870690101068617
1100833	0.879307312733404
1101667	0.887934869190106
1102500	-0.103447919145106
1103333	-0.0948307074803191
1104167	-0.0862031510236172
1105000	0.92241406064117
1105833	0.931031272305958
1106667	0.939658828762659
1107500	0.948276040427447
1108333	0.956893252092234
1109167	0.965520808548936
1110000	-0.0258619797862766
1110833	-0.0172447681214892
1111667	-0.00861721166478735
1112500	0
1113333	0
1114167	0
1115000	0
1115833	0
1116667	0
1117500	0
1118333	0
1119167	0
1120000	0
1120833	0
1121667	0
1122500	0
1123333	1
1124167	1
1125000	1
1125833	1
1126667	1
1127500	1
1128333	1
1129167	1
1130000	1
1130833	1
1131667	1
1132500	1
1133333	1
1134167	1
1135000	1
1135833	1
1136667	0
1137500	0
1138333	0
1139167	0
1140000	0
1140833	0
1141667	0
1142500	0
1143333	0
1144167	0
1145000	0
1145833	0
1146667	0
1147500	0
1148333	0
1149167	0
1150000	0
1150833	0
1151667	0
1152500	0
1153333	0
1154167	0
1155000	1
1155833	1
1156667	0
1157500	0
1158333	0
1159167	0
1160000	0
1160833	0
1161667	1
1162500	1
1163333	1
1164167	1
1165000	1
1165833	1
1166667	1
1167500	0
1168333	0
1169167	0
1170000	0
1170833	-1
1171667	-1
1172500	0
1173333	0
1174167	0
1175000	0
1175833	1
1176667	1
1177500	1
1178333	1
1179167	1
1180000	0
1180833	0
1181667	0
1182500	0
1183333	0
1184167	-1
1185000	-1
1185833	-1
1186667	-1
1187500	-1
1188333	-1
1189167	-1
1190000	0
1190833	0
1191667	0
1192500	1
1193333	1
1194167	0
1195000	0
1195833	0
1196667	0
1197500	0
1198333	0
1199167	0
1200000	-1
1200833	-1
1201667	-1
1202500	-1
1203333	-1
1204167	-1
1205000	0
1205833	0
1206667	0
1207500	0
1208333	0
1209167	0
1210000	-0.0258519024269133
1210833	-0.0517038048538265
1211667	-0.0775867419775309
1212500	-0.103438644404444
1213333	-0.129290546831357
1214167	-0.155173483955062
1215000	-0.181025386381975
1215833	-0.206877288808888
1216667	-0.232760225932593
1217500	0.741387871640494
1218333	-0.284464030786419
1219167	-0.310346967910124
1220000	-0.336198870337037
1220833	-0.36205077276395
1221667	-0.387933709887654
1222500	-0.413785612314568
1223333	-0.439637514741481
1224167	-1.46552045186519
1225000	-1.4913723542921
1225833	-1.51722425671901
1226667	-1.54310719384272
1227500	-1.56895909626963
1228333	-2.59481099869654
1229167	-2.62069393582025
1230000	-1.64654583824716
1230833	-1.67239774067407
1231667	-1.69828067779778
1232500	-1.72413258022469
1233333	-0.749984482651604
1234167	-0.775867419775309
1235000	-0.801719322202222
1235833	-0.827571224629135
1236667	-0.85345416175284
1237500	-0.879306064179753
1238333	-0.905157966606666
1239167	-0.931040903730371
1240000	-1.95689280615728
1240833	-1.9827447085842
1241667	-1.0086276457079
1242500	-1.03447954813481
1243333	-1.06033145056173
1244167	-1.08621438768543
1245000	-1.11206629011235
1245833	-1.13791819253926
1246667	-1.16380112966296
1247500	-1.18965303208988
1248333	-1.21550493451679
1249167	-1.24138787164049
1250000	-1.26723977406741
1250833	-0.293091676494321
1251667	-0.318974613618025
1252500	-0.344826516044938
1253333	-0.370678418471851
1254167	-0.396561355595556
1255000	-0.422413258022469
1255833	-0.448265160449382
1256667	-0.474148097573087
1257500	-0.5
1258333	-0.525851902426913
1259167	-0.551734839550618
1260000	-0.577586741977531
1260833	0.396561355595556
1261667	0.370678418471851
1262500	0.344826516044938
1263333	0.318974613618025
1264167	0.293091676494321
1265000	0.267239774067407
1265833	0.241387871640494
1266667	0.21550493451679
1267500	0.189653032089876
1268333	0.163801129662963
1269167	0.137918192539259
1270000	0.112066290112346
1270833	0.0862143876854322
1271667	1.06033145056173
1272500	1.03447954813481
1273333	1.0086276457079
1274167	0.982744708584197
1275000	0.956892806157284
1275833	0.93104090373037
1276667	0.905157966606666
1277500	0.879306064179753
1278333	0.85345416175284
1279167	1.82757122462914
1280000	1.80171932220222
1280833	1.77586741977531
1281667	1.7499844826516
1282500	1.72413258022469
1283333	1.69828067779778
1284167	1.67239774067407
1285000	2.64654583824716
1285833	2.62069393582025
1286667	2.59481099869654
1287500	2.56895909626963
1288333	1.54310719384272
1289167	1.51722425671901
1290000	1.4913723542921
1290833	1.46552045186519
1291667	2.43963751474148
1292500	2.41378561231457
1293333	2.38793370988765
1294167	2.36205077276395
1295000	2.33619887033704
1295833	1.31034696791012
1296667	1.28446403078642
1297500	1.25861212835951
1298333	1.23276022593259
1299167	1.20687728880889
1300000	1.18102538638197
1300833	1.15517348395506
1301667	1.12929054683136
1302500	1.10343864440444
1303333	1.07758674197753
1304167	1.05170380485383
1305000	0.0258519024269135
1305833	0
1306667	-0.982744887086596
1307500	-0.965510463757022
1308333	-0.948276040427447
1309167	-0.931020927514043
1310000	-0.913786504184468
1310833	-0.896552080854894
1311667	-0.87929696794149
1312500	-0.862062544611915
1313333	-0.84482812128234
1314167	-0.827573008368937
1315000	-0.810338585039362
1315833	-1.79310416170979
1316667	-1.77584904879638
1317500	-0.758614625466809
1318333	-0.741380202137234
1319167	-0.72412508922383
1320000	0.293109334105744
1320833	0.310343757435319
1321667	-0.672401129651277
1322500	-0.655166706321702
1323333	-0.637932282992128
1324167	-0.620677170078724
1325000	0.396557253250851
1325833	0.413791676580426
1326667	0.431046789493829
1327500	-0.551718787176596
1328333	-0.534484363847021
1329167	-0.517229250933617
1330000	-0.499994827604043
1330833	-0.482760404274468
1331667	-0.465505291361064
1332500	-0.44827086803149
1333333	-0.431036444701915
1334167	-0.413781331788511
1335000	-0.396546908458936
1335833	-0.379312485129362
1336667	-0.362057372215958
1337500	-0.344822948886383
1338333	-0.327588525556808
1339167	-0.310333412643405
1340000	-0.29309898931383
1340833	-0.275864565984255
1341667	-0.258609453070851
1342500	-0.241375029741277
1343333	-0.224140606411702
1344167	-0.206885493498298
1345000	-0.189651070168724
1345833	-0.172416646839149
1346667	-0.155161533925745
1347500	-0.13792711059617
1348333	-1.1206926872666
1349167	-1.10343757435319
1350000	-1.08620315102362
1350833	-0.0689687276940423
1351667	-0.0517136147806387
1352500	-0.034479191451064
1353333	-0.0172447681214893
1354167	1.03447919144184E-5
1355000	0.0172447681214893
1355833	0.034479191451064
1356667	-0.948265695635532
1357500	-0.931031272305958
1358333	-0.913796848976383
1359167	-0.896541736062979
1360000	0.120692687266596
1360833	0.13792711059617
1361667	0.155182223509574
1362500	0.172416646839149
1363333	0.189651070168724
1364167	0.206906183082127
1365000	0.224140606411702
1365833	-0.758624970258723
1366667	-0.74136985734532
1367500	-0.724135434015745
1368333	-0.70690101068617
1369167	-0.689645897772766
1370000	-0.672411474443191
1370833	-0.655177051113617
1371667	-0.637921938200213
1372500	-0.620687514870638
1373333	0.396546908458936
1374167	0.41380202137234
1375000	0.431036444701915
1375833	0.44827086803149
1376667	0.465525980944893
1377500	0.482760404274468
1378333	0.499994827604043
1379167	0.517249940517446
1380000	0.534484363847021
1380833	-0.448281212823404
1381667	-0.43102609991
1382500	-0.413791676580425
1383333	-0.396557253250851
1384167	-0.379302140337447
1385000	-0.362067717007872
1385833	-0.344833293678298
1386667	-0.327578180764894
1387500	-0.310343757435319
1388333	-0.293109334105744
1389167	-0.275854221192341
1390000	-0.258619797862766
1390833	-0.241385374533191
1391667	-0.224130261619788
1392500	-0.206895838290213
1393333	-0.189661414960638
1394167	-0.172406302047234
1395000	-0.15517187871766
1395833	-1.13793745538808
1396667	-1.12068234247468
1397500	-0.103447919145106
1398333	-0.0862134958155316
1399167	-0.0689583829021279
1400000	-0.0517239595725532
1400833	-0.0344895362429785
1401667	-1.01723442332957
1402500	0
1403333	0.00861721166478736
1404167	0.0172447681214892
1405000	0.0258619797862766
1405833	0.034479191451064
1406667	0.0431067479077658
1407500	0.0517239595725532
1408333	0.0603411712373406
1409167	0.0689687276940424
1410000	0.0775859393588298
1410833	0.0862031510236172
1411667	0.094830707480319
1412500	0.103447919145106
1413333	0.112065130809894
1414167	0.120692687266596
1415000	0.129309898931383
1415833	-0.86207288940383
1416667	-0.853445332947128
1417500	-0.84482812128234
1418333	-0.836210909617553
1419167	-1.82758335316085
1420000	-0.818966141496064
1420833	-0.810348929831276
1421667	-0.801721373374575
1422500	-1.79310416170979
1423333	-1.784486950045
1424167	-1.7758593935883
1425000	-1.76724218192351
1425833	-1.75862497025872
1426667	-1.74999741380202
1427500	-1.74138020213723
1428333	-1.73276299047245
1429167	-1.72413543401574
1430000	-1.71551822235096
1430833	-0.70690101068617
1431667	-0.698273454229468
1432500	-1.68965624256468
1433333	-1.68103903089989
1434167	-1.67241147444319
1435000	-1.6637942627784
1435833	-1.65517705111362
1436667	-1.64654949465692
1437500	-1.63793228299213
1438333	-1.62931507132734
1439167	-0.620687514870638
1440000	-0.612070303205851
1440833	-0.603453091541064
1441667	-0.594825535084362
1442500	-0.586208323419574
1443333	-0.577591111754787
1444167	-1.56896355529809
1445000	-1.5603463436333
1445833	-1.55172913196851
1446667	-1.54310157551181
1447500	-1.53448436384702
1448333	-2.52586715218223
1449167	-2.51723959572553
1450000	-1.50862238406074
1450833	-1.50000517239596
1451667	-1.49137761593926
1452500	-1.48276040427447
1453333	-0.474143192609681
1454167	-0.465515636152979
1455000	-1.45689842448819
1455833	-1.4482812128234
1456667	-1.4396536563667
1457500	-1.43103644470191
1458333	-1.42241923303713
1459167	-1.41379167658043
1460000	-0.405174464915638
1460833	-0.396557253250851
1461667	-0.387929696794149
1462500	-0.379312485129362
1463333	-0.370695273464574
1464167	-0.362067717007872
1465000	-0.353450505343085
1465833	-0.344833293678298
1466667	-0.336205737221596
1467500	-0.327588525556808
1468333	-0.318971313892021
1469167	-0.310343757435319
1470000	-0.301726545770532
1470833	-0.293109334105744
1471667	-0.284481777649043
1472500	-0.275864565984255
1473333	-0.267247354319468
1474167	-0.258619797862766
1475000	-0.250002586197979
1475833	-0.241385374533191
1476667	-0.232757818076489
1477500	-0.224140606411702
1478333	-0.215523394746915
1479167	-0.206895838290213
1480000	-0.198278626625425
1480833	-0.189661414960638
1481667	-0.181033858503936
1482500	0.827583353160851
1483333	-0.163799435174361
1484167	-0.15517187871766
1485000	-0.146554667052872
1485833	-0.137937455388085
1486667	-0.129309898931383
1487500	-0.120692687266596
1488333	-0.112075475601808
1489167	-0.103447919145106
1490000	-0.0948307074803191
1490833	-0.0862134958155316
1491667	-0.0775859393588298
1492500	-0.0689687276940424
1493333	-0.060351516029255
1494167	-0.0517239595725532
1495000	-0.0431067479077658
1495833	-0.0344895362429785
1496667	0.974138020213723
1497500	-0.0172447681214892
1498333	-0.00862755645670188
1499167	0
1500000	-0.00861730080897105
1500833	0.982765398382058
1501667	0.974137752674156
1502500	0.965520451865185
1503333	0.956903151056214
1504167	0.948275505348313
1505000	0.939658204539342
1505833	0.931040903730371
1506667	0.922413258022469
1507500	0.913795957213498
1508333	-0.0948213435954731
1509167	-0.103448989303375
1510000	-0.112066290112346
1510833	-0.120683590921317
1511667	-0.129311236629218
1512500	-0.137928537438189
1513333	-0.14654583824716
1514167	0.844826516044938
1515000	0.836209215235967
1515833	0.827591914426996
1516667	0.818964268719095
1517500	0.810346967910124
1518333	0.801729667101152
1519167	0.793102021393251
1520000	1.78448472058428
1520833	1.77586741977531
1521667	0.767239774067407
1522500	0.758622473258436
1523333	0.750005172449465
1524167	0.741377526741564
1525000	0.732760225932593
1525833	0.724142925123622
1526667	0.71551527941572
1527500	0.706897978606749
1528333	0.698280677797778
1529167	0.689653032089876
1530000	-0.318964268719095
1530833	-0.327581569528066
1531667	0.663790784764033
1532500	0.655173483955062
1533333	0.646556183146091
1534167	0.637928537438189
1535000	0.629311236629218
1535833	0.620693935820247
1536667	0.612066290112346
1537500	0.603448989303375
1538333	0.594831688494403
1539167	0.586204042786502
1540000	0.577586741977531
1540833	1.56896944116856
1541667	1.56034179546066
1542500	1.55172449465169
1543333	1.54310719384272
1544167	1.53447954813481
1545000	1.52586224732584
1545833	1.51724494651687
1546667	1.50861730080897
1547500	1.5
1548333	1.49138269919103
1549167	1.48275505348313
1550000	1.47413775267416
1550833	2.46552045186519
1551667	2.45689280615728
1552500	2.44827550534831
1553333	2.43965820453934
1554167	2.43103055883144
1555000	2.42241325802247
1555833	2.4137959572135
1556667	2.4051683115056
1557500	1.39655101069663
1558333	1.38793370988765
1559167	1.37930606417975
1560000	1.37068876337078
1560833	2.36207146256181
1561667	2.35344381685391
1562500	1.34482651604494
1563333	1.33620921523597
1564167	1.32758156952807
1565000	1.31896426871909
1565833	1.31034696791012
1566667	1.30171932220222
1567500	1.29310202139325
1568333	1.28448472058428
1569167	1.27585707487638
1570000	1.26723977406741
1570833	1.25862247325844
1571667	1.24999482755053
1572500	1.24137752674156
1573333	1.23276022593259
1574167	1.22413258022469
1575000	0.21551527941572
1575833	0.206897978606749
1576667	0.198270332898848
1577500	0.189653032089876
1578333	0.181035731280905
1579167	0.172408085573004
1580000	0.163790784764033
1580833	1.15517348395506
1581667	1.14654583824716
1582500	1.13792853743819
1583333	1.12931123662922
1584167	1.12068359092132
1585000	1.11206629011235
1585833	1.10344898930337
1586667	1.09482134359547
1587500	1.0862040427865
1588333	1.07758674197753
1589167	1.06895909626963
1590000	1.06034179546066
1590833	1.05172449465169
1591667	0.0430968489437858
1592500	1.03447954813481
1593333	0.0258622473258436
1594167	0.0172346016179422
1595000	0.00861730080897105
1595833	0
1596667	0
1597500	0
1598333	0
1599167	0
1600000	0
1600833	0
1601667	0
1602500	-1
1603333	-1
1604167	-1
1605000	-1
1605833	-1
1606667	-1
1607500	-1
1608333	-1
1609167	0
1610000	0
1610833	0
1611667	0
1612500	-1
1613333	-1
1614167	-1
1615000	-1
1615833	-1
1616667	-1
1617500	-1
1618333	-1
1619167	-1
1620000	-1
1620833	-1
1621667	-1
1622500	-1
1623333	-1
1624167	-1
1625000	0
1625833	0
1626667	0
1627500	0
1628333	0
1629167	0
1630000	0
1630833	0
1631667	0
1632500	0
1633333	0
1634167	0
1635000	1
1635833	1
1636667	1
1637500	1
1638333	1
1639167	1
1640000	1
1640833	0
1641667	0
1642500	0
1643333	0
1644167	0
1645000	0
1645833	0
1646667	0
1647500	0
1648333	1
1649167	1
1650000	1
1650833	1
1651667	1
1652500	1
1653333	1
1654167	2
1655000	1
1655833	1
1656667	1
1657500	1
1658333	1
1659167	1
1660000	1
1660833	1
1661667	1
1662500	1
1663333	1
1664167	1
1665000	0
1665833	0
1666667	0
1667500	0
1668333	0
1669167	0
1670000	0
1670833	0
1671667	0
1672500	1
1673333	1
1674167	1
1675000	1
1675833	1
1676667	1
1677500	1
1678333	0
1679167	1
1680000	1
1680833	1
1681667	0
1682500	0
1683333	0
1684167	0
1685000	0
1685833	0
1686667	0
1687500	0
1688333	0
1689167	0
1690000	0
1690833	0
1691667	0
1692500	0
1693333	-0.00861721166478736
1694167	-0.0172447681214892
1695000	-0.0258619797862766
1695833	-0.034479191451064
1696667	-0.0431067479077658
1697500	-0.0517239595725532
1698333	-0.0603411712373406
1699167	-0.0689687276940424
1700000	-0.0775859393588298
1700833	0.913796848976383
1701667	0.905169292519681
1702500	0.896552080854894
1703333	0.887934869190106
1704167	0.879307312733404
1705000	0.870690101068617
1705833	0.86207288940383
1706667	0.853445332947128
1707500	0.84482812128234
1708333	0.836210909617553
1709167	0.827583353160851
1710000	0.818966141496064
1710833	0.810348929831276
1711667	0.801721373374575
1712500	0.793104161709787
1713333	0.784486950045
1714167	0.775859393588298
1715000	0.767242181923511
1715833	0.758624970258723
1716667	0.749997413802021
1717500	0.741380202137234
1718333	0.732762990472447
1719167	0.724135434015745
1720000	0.715518222350957
1720833	0.70690101068617
1721667	0.698273454229468
1722500	1.68965624256468
1723333	1.68103903089989
1724167	0.672411474443191
1725000	0.663794262778404
1725833	-0.344822948886383
1726667	-0.353450505343085
1727500	-0.362067717007872
1728333	-0.37068492867266
1729167	-0.379312485129362
1730000	0.612070303205851
1730833	0.603453091541064
1731667	0.594825535084362
1732500	0.586208323419574
1733333	0.577591111754787
1734167	0.568963555298085
1735000	0.560346343633298
1735833	0.55172913196851
1736667	1.54310157551181
1737500	1.53448436384702
1738333	1.52586715218223
1739167	1.51723959572553
1740000	1.50862238406074
1740833	0.500005172395957
1741667	0.491377615939255
1742500	0.482760404274468
1743333	0.474143192609681
1744167	0.465515636152979
1745000	1.45689842448819
1745833	1.4482812128234
1746667	1.4396536563667
1747500	1.43103644470191
1748333	1.42241923303713
1749167	1.41379167658043
1750000	1.40517446491564
1750833	1.39655725325085
1751667	1.38792969679415
1752500	1.37931248512936
1753333	1.37069527346457
1754167	1.36206771700787
1755000	1.35345050534309
1755833	1.3448332936783
1756667	1.3362057372216
1757500	2.32758852555681
1758333	2.31897131389202
1759167	2.31034375743532
1760000	2.30172654577053
1760833	2.29310933410574
1761667	2.28448177764904
1762500	2.27586456598426
1763333	2.26724735431947
1764167	2.25861979786277
1765000	2.25000258619798
1765833	2.24138537453319
1766667	2.23275781807649
1767500	2.2241406064117
1768333	1.21552339474691
1769167	1.20689583829021
1770000	1.19827862662543
1770833	1.18966141496064
1771667	1.18103385850394
1772500	1.17241664683915
1773333	1.16379943517436
1774167	1.15517187871766
1775000	1.14655466705287
1775833	1.13793745538809
1776667	1.12930989893138
1777500	1.1206926872666
1778333	1.11207547560181
1779167	1.10344791914511
1780000	1.09483070748032
1780833	1.08621349581553
1781667	1.07758593935883
1782500	1.06896872769404
1783333	1.06035151602926
1784167	1.05172395957255
1785000	0.0431067479077658
1785833	0.0344895362429785
1786667	0.0258619797862766
1787500	0.0172447681214892
1788333	0.00862755645670188
1789167	0
1790000	1.00766479135376
1790833	1.01532958270751
1791667	2.02300357549147
1792500	2.03066836684523
1793333	2.03833315819898
1794167	2.04600715098294
1795000	2.0536719423367
1795833	2.06133673369045
1796667	2.06901072647441
1797500	2.07667551782816
1798333	2.08434030918192
1799167	2.09201430196588
1800000	2.09967909331963
1800833	2.10734388467339
1801667	2.11501787745734
1802500	2.1226826688111
1803333	2.13034746016486
1804167	2.13802145294881
1805000	1.14568624430257
1805833	1.15335103565633
1806667	1.16102502844028
1807500	1.16868981979404
1808333	1.1763546111478
1809167	1.18402860393175
1810000	1.19169339528551
1810833	1.19935818663927
1811667	1.20703217942322
1812500	1.21469697077698
1813333	1.22236176213074
1814167	1.23003575491469
1815000	1.23770054626845
1815833	0.245365337622204
1816667	0.253039330406158
1817500	0.260704121759915
1818333	0.268368913113673
1819167	0.276042905897627
1820000	1.28370769725138
1820833	1.29137248860514
1821667	1.2990464813891
1822500	1.30671127274285
1823333	0.314376064096611
1824167	0.322050056880565
1825000	0.329714848234322
1825833	0.337379639588079
1826667	0.345053632372034
1827500	0.352718423725791
1828333	0.360383215079549
1829167	0.368057207863502
1830000	0.37572199921726
1830833	-0.616613209428983
1831667	-0.608939216645029
1832500	-0.601274425291271
1833333	-1.59360963393751
1834167	-0.58593564115356
1835000	-0.578270849799802
1835833	-0.570606058446045
1836667	-0.562932065662091
1837500	-0.555267274308333
1838333	0.452397517045424
1839167	0.460071509829378
1840000	0.467736301183135
1840833	0.475401092536893
1841667	0.483075085320847
1842500	0.490739876674605
1843333	1.49840466802836
1844167	0.506078660812316
1845000	0.513743452166073
1845833	0.521408243519831
1846667	0.529082236303785
1847500	0.536747027657542
1848333	-0.4555881809887
1849167	-0.447914188204746
1850000	-0.440249396850989
1850833	-0.432584605497231
1851667	-0.424910612713277
1852500	-0.41724582135952
1853333	-0.408789232699913
1854167	-0.39754372442708
1855000	-0.386311699977115
1855833	0.624920324472849
1856667	0.636165832745682
1857500	0.647397857195647
1858333	-0.341370118354389
1859167	-0.330124610081556
1860000	-0.318892585631592
1860833	-1.30766056118163
1861667	-1.29641505290879
1862500	-2.28518302845883
1863333	-2.27395100400887
1864167	-2.26270549573603
1865000	-2.25147347128607
1865833	-2.2402414468361
1866667	-3.22899593856327
1867500	-3.21776391411331
1868333	-4.20653188966334
1869167	-4.19528638139051
1870000	-5.18405435694054
1870833	-5.17282233249058
1871667	-6.16157682421775
1872500	-6.15034479976778
1873333	-6.13911277531782
1874167	-7.12786726704498
1875000	-8.11663524259502
1875833	-8.10540321814506
1876667	-9.09415770987222
1877500	-10.0829256854223
1878333	-11.0716936609723
1879167	-12.0604481526995
1880000	-13.0492161282495
1880833	-14.0379841037995
1881667	-15.0267385955267
1882500	-16.0155065710767
1883333	-17.0042745466268
1884167	-17.9930290383539
1885000	-18.981797013904
1885833	-20.970564989454
1886667	-21.9593194811812
1887500	-23.9480874567312
1888333	-24.9368554322812
1889167	-26.9256099240084
1890000	-28.9143778995584
1890833	-30.9031458751085
1891667	-32.8919003668357
1892500	-34.8806683423857
1893333	-35.8694363179357
1894167	-37.8581908096629
1895000	-39.8469587852129
1895833	-41.835726760763
1896667	-43.8244812524901
1897500	-44.8132492280402
1898333	-46.8020172035902
1899167	-48.7907716953174
1900000	-51.7795396708674
1900833	-53.7683076464174
1901667	-55.7570621381446
1902500	-57.7458301136946
1903333	-59.7345980892447
1904167	-61.7233525809718
1905000	-63.7121205565219
1905833	-65.7008885320719
1906667	-66.6896430237991
1907500	-67.6784109993491
1908333	-68.6671789748992
1909167	-69.6559334666263
1910000	-70.6447014421764
1910833	-71.6334694177264
1911667	-71.6222239094536
1912500	-72.6109918850036
1913333	-72.5997598605536
1914167	-72.5885143522808
1915000	-72.5772823278308
1915833	-72.5660503033809
1916667	-72.554804795108
1917500	-71.5435727706581
1918333	-71.5323407462081
1919167	-70.5210952379353
1920000	-69.5098632134853
1920833	-68.4986311890354
1921667	-67.4873856807625
1922500	-66.4761536563125
1923333	-64.4649216318626
1924167	-62.4536761235898
1925000	-61.4424440991398
1925833	-59.4312120746898
1926667	-57.419966566417
1927500	-56.408734541967
1928333	-54.3975025175171
1929167	-52.3862570092442
1930000	-50.3750249847943
1930833	-48.3637929603443
1931667	-46.3525474520715
1932500	-45.3413154276215
1933333	-43.3300834031715
1934167	-40.3188378948987
1935000	-38.3076058704487
1935833	-36.2963738459988
1936667	-34.2851283377259
1937500	-33.273896313276
1938333	-31.262664288826
1939167	-29.2514187805532
1940000	-27.2401867561032
1940833	-25.2289547316533
1941667	-24.2177092233804
1942500	-22.2064771989305
1943333	-21.1952451744805
1944167	-19.1839996662077
1945000	-17.1727676417577
1945833	-15.1615356173077
1946667	-13.1502901090349
1947500	-12.1390580845849
1948333	-12.127826060135
1949167	-11.1165805518621
1950000	-10.1053485274122
1950833	-9.0941165029622
1951667	-8.08287099468937
1952500	-7.0716389702394
1953333	-7.06040694578944
1954167	-7.04916143751661
1955000	-6.03792941306664
1955833	-6.02669738861668
1956667	-6.01545188034384
1957500	-5.00421985589388
1958333	-3.99298783144392
1959167	-2.98174232317108
1960000	-2.97051029872112
1960833	-1.95927827427115
1961667	-1.94803276599832
1962500	-0.936800741548357
1963333	-0.925568717098393
1964167	-0.914323208825559
1965000	-0.903091184375595
1965833	-0.891859159925631
1966667	0.119386348347203
1967500	0.130618372797167
1968333	0.141850397247131
1969167	0.153095905519965
1970000	1.16432792996993
1970833	1.17555995441989
1971667	1.18680546269273
1972500	1.19803748714269
1973333	1.20926951159265
1974167	1.22051501986549
1975000	1.23174704431545
1975833	1.24297906876542
1976667	1.25422457703825
1977500	0.265456601488214
1978333	0.276688625938178
1979167	0.287934134211012
1980000	0.279376125655252
1980833	0.254959552807324
1981667	0.230513668347334
1982500	0.206097095499407
1983333	0.181680522651479
1984167	0.157234638191489
1985000	0.132818065343562
1985833	0.108401492495634
1986667	0.0839556080356441
1987500	0.0595390351877165
1988333	0.035122462339789
1989167	0.010676577879799
1990000	-1.01373999496813
1990833	-1.03815656781606
1991667	-2.06260245227605
1992500	-2.08701902512397
1993333	-2.1114355979719
1994167	-2.13588148243189
1995000	-2.16029805527982
1995833	-3.18471462812775
1996667	-3.20916051258774
1997500	-4.23357708543566
1998333	-5.25799365828359
1999167	-5.28243954274358
2000000	-6.30685611559151
2000833	-7.33127268843944
2001667	-8.35571857289943
2002500	-9.38013514574735
2003333	-9.40455171859528
2004167	-10.4289976030553
2005000	-10.4534141759032
2005833	-11.4778307487511
2006667	-12.5022766332111
2007500	-13.526693206059
2008333	-13.551109778907
2009167	-14.575555663367
2010000	-16.5999722362149
2010833	-17.6243888090628
2011667	-18.6488346935228
2012500	-18.6732512663707
2013333	-19.6976678392187
2014167	-21.7221137236787
2015000	-22.7465302965266
2015833	-23.7709468693745
2016667	-24.7953927538345
2017500	-25.8198093266824
2018333	-27.8442258995304
2019167	-28.8686717839903
2020000	-29.8930883568383
2020833	-30.9175049296862
2021667	-31.9419508141462
2022500	-33.9663673869941
2023333	-34.990783959842
2024167	-37.015229844302
2025000	-38.03964641715
2025833	-40.0640629899979
2026667	-41.0885088744579
2027500	-43.1129254473058
2028333	-44.1373420201537
2029167	-45.1617879046137
2030000	-47.1862044774617
2030833	-48.2106210503096
2031667	-49.2350669347696
2032500	-50.2594835076175
2033333	-51.2839000804654
2034167	-52.3083459649254
2035000	-53.3327625377733
2035833	-53.3571791106213
2036667	-53.3816249950813
2037500	-54.4060415679292
2038333	-54.4304581407771
2039167	-55.4549040252371
2040000	-55.479320598085
2040833	-55.503737170933
2041667	-55.528183055393
2042500	-55.5525996282409
2043333	-55.5770162010888
2044167	-55.6014620855488
2045000	-55.6258786583967
2045833	-54.6502952312446
2046667	-54.6747411157046
2047500	-53.6991576885526
2048333	-53.7235742614005
2049167	-53.7480201458605
2050000	-52.7724367187084
2050833	-52.7968532915563
2051667	-51.8212991760163
2052500	-50.8457157488643
2053333	-49.8701323217122
2054167	-48.8945782061722
2055000	-47.9189947790201
2055833	-46.943411351868
2056667	-45.967857236328
2057500	-44.9922738091759
2058333	-44.0166903820239
2059167	-43.0411362664839
2060000	-42.0655528393318
2060833	-41.0899694121797
2061667	-40.1144152966397
2062500	-39.1388318694876
2063333	-38.1632484423356
2064167	-36.1876943267956
2065000	-35.2121108996435
2065833	-34.2365274724914
2066667	-34.2609733569514
2067500	-32.2853899297993
2068333	-31.3098065026473
2069167	-30.3342523871072
2070000	-29.3586689599552
2070833	-28.3830855328031
2071667	-26.4075314172631
2072500	-25.431947990111
2073333	-24.4563645629589
2074167	-23.4808104474189
2075000	-22.5052270202669
2075833	-21.5296435931148
2076667	-20.5540894775748
2077500	-20.5785060504227
2078333	-19.6029226232706
2079167	-18.6273685077306
2080000	-17.6517850805786
2080833	-16.6762016534265
2081667	-15.7006475378865
2082500	-14.7250641107344
2083333	-14.7494806835823
2084167	-13.7739265680423
2085000	-12.7983431408902
2085833	-11.8227597137382
2086667	-11.8472055981982
2087500	-10.8716221710461
2088333	-10.896038743894
2089167	-9.92048462835401
2090000	-8.94490120120193
2090833	-8.96931777404986
2091667	-7.99376365850985
2092500	-8.01818023135778
2093333	-7.04259680420571
2094167	-7.0670426886657
2095000	-7.09145926151363
2095833	-7.11587583436155
2096667	-6.14032171882154
2097500	-6.16473829166947
2098333	-6.1891548645174
2099167	-5.21360074897739
2100000	-5.23801732182532
2100833	-4.26243389467324
2101667	-4.28687977913323
2102500	-3.31129635198116
2103333	-3.33571292482909
2104167	-3.36015880928908
2105000	-3.38457538213701
2105833	-3.40899195498493
2106667	-3.43343783944492
2107500	-2.45785441229285
2108333	-2.48227098514078
2109167	-2.50671686960077
2110000	-1.5311334424487
2110833	-1.55555001529662
2111667	-1.57999589975661
2112500	-1.60441247260454
2113333	-1.62882904545247
2114167	-0.653274929912458
2115000	-0.677691502760386
2115833	-0.702108075608314
2116667	-0.726553960068304
2117500	0.249029467083768
2118333	0.224612894235841
2119167	0.200167009775851
2120000	0.175750436927924
2120833	-0.826899624258537
2121667	-0.82952445541069
2122500	-0.832146139283283
2123333	-0.834767823155877
2124167	-0.837392654308029
2125000	0.159985661819377
2125833	0.157363977946784
2126667	0.154739146794632
2127500	0.152117462922038
2128333	0.149495779049445
2129167	0.146870947897292
2130000	0.144249264024699
2130833	0.141627580152106
2131667	0.139002748999953
2132500	0.13638106512736
2133333	0.133759381254766
2134167	0.131134550102614
2135000	0.128512866230021
2135833	1.12589118235743
2136667	1.12326635120527
2137500	1.12064466733268
2138333	1.11802298346009
2139167	1.11539815230794
2140000	1.11277646843534
2140833	1.11015478456275
2141667	1.1075299534106
2142500	1.104908269538
2143333	0.10228658566541
2144167	1.09966175451326
2145000	1.09704007064066
2145833	1.09441838676807
2146667	2.09179355561592
2147500	1.08917187174332
2148333	2.08655018787073
2149167	1.08392535671858
2150000	1.08130367284599
2150833	1.07868198897339
2151667	1.07605715782124
2152500	1.07343547394865
2153333	1.07081379007605
2154167	1.0681889589239
2155000	1.06556727505131
2155833	1.06294559117871
2156667	0.0603207600265612
2157500	0.057699076153968
2158333	0.0550773922813743
2159167	1.05245256112922
2160000	1.04983087725663
2160833	0.0472091933840351
2161667	0.0445843622318827
2162500	0.0419626783592895
2163333	0.0393409944866958
2164167	0.0367161633345439
2165000	0.0340944794619502
2165833	0.031472795589357
2166667	0.0288479644372046
2167500	0.026226280564611
2168333	0.0236045966920178
2169167	0.0209797655398654
2170000	-0.981641918332728
2170833	-0.984263602205322
2171667	0.0131115666425261
2172500	0.0104898827699325
2173333	0.00786819889733925
2174167	0.00524336774518686
2175000	0.00262168387259365
2175833	0
2176667	0.0172551129134035
2177500	0.0344895362429787
2178333	0.0517239595725534
2179167	0.0689790724859569
2180000	0.0862134958155316
2180833	0.103447919145106
2181667	0.12070303205851
2182500	0.137937455388085
2183333	0.15517187871766
2184167	0.172426991631063
2185000	1.18966141496064
2185833	0.206895838290213
2186667	0.224150951203617
2187500	0.241385374533191
2188333	0.258619797862766
2189167	0.27587491077617
2190000	0.293109334105744
2190833	0.310343757435319
2191667	0.327598870348723
2192500	0.344833293678298
2193333	0.362067717007872
2194167	0.379322829921276
2195000	0.396557253250851
2195833	0.413791676580426
2196667	0.431046789493829
2197500	0.448281212823404
2198333	0.465515636152979
2199167	1.48277074906638
2200000	1.50000517239596
2200833	1.51723959572553
2201667	1.53449470863894
2202500	1.55172913196851
2203333	1.56896355529809
2204167	1.58621866821149
2205000	0.603453091541064
2205833	0.620687514870638
2206667	0.637942627784042
2207500	0.655177051113617
2208333	0.672411474443192
2209167	0.689666587356595
2210000	0.70690101068617
2210833	0.724135434015745
2211667	0.741390546929149
2212500	0.758624970258723
2213333	0.775859393588298
2214167	0.793114506501702
2215000	0.810348929831276
2215833	0.827583353160851
2216667	0.844838466074255
2217500	0.86207288940383
2218333	0.879307312733404
2219167	0.896562425646808
2220000	0.913796848976383
2220833	0.931031272305958
2221667	0.948286385219361
2222500	0.965520808548936
2223333	0.982755231878511
2224167	1.00001034479191
2225000	1.01724476812149
2225833	1.03447919145106
2226667	2.05173430436447
2227500	2.06896872769404
2228333	2.08620315102362
2229167	1.10345826393702
2230000	1.1206926872666
2230833	1.13792711059617
2231667	1.15518222350957
2232500	1.17241664683915
2233333	1.18965107016872
2234167	1.20690618308213
2235000	1.2241406064117
2235833	0.241375029741277
2236667	0.25863014265468
2237500	0.275864565984255
2238333	1.29309898931383
2239167	1.31035410222723
2240000	1.32758852555681
2240833	1.34482294888638
2241667	1.36207806179979
2242500	1.37931248512936
2243333	1.39654690845894
2244167	1.41380202137234
2245000	1.43103644470191
2245833	1.44827086803149
2246667	0.465525980944893
2247500	0.482760404274468
2248333	0.499994827604043
2249167	0.517249940517446
2250000	0.534484363847021
2250833	0.551718787176596
2251667	0.56897390009
2252500	0.586208323419575
2253333	0.603442746749149
2254167	0.620697859662553
2255000	0.637932282992128
2255833	0.655166706321702
2256667	0.672421819235106
2257500	0.689656242564681
2258333	0.706890665894256
2259167	0.724145778807659
2260000	0.741380202137234
2260833	0.758614625466809
2261667	0.775869738380212
2262500	1.79310416170979
2263333	1.81033858503936
2264167	1.82759369795277
2265000	1.84482812128234
2265833	1.86206254461192
2266667	0.879317657525319
2267500	0.896552080854894
2268333	0.913786504184468
2269167	0.931041617097872
2270000	-0.0517239595725532
2270833	-0.0344895362429785
2271667	-0.0172344233295747
2272500	0
2273333	0.0126615449124178
2274167	0.025338289758704
2275000	0.0379998346711218
2275833	0.0506613795835396
2276667	0.0633381244298258
2277500	0.0759996693422436
2278333	0.0886612142546613
2279167	1.10133795910095
2280000	1.11399950401337
2280833	0.126661048925783
2281667	0.139337793772069
2282500	0.151999338684487
2283333	0.164660883596905
2284167	1.17733762844319
2285000	0.189999173355609
2285833	0.202660718268027
2286667	0.215337463114313
2287500	0.227999008026731
2288333	0.240660552939148
2289167	0.253337297785435
2290000	0.265998842697852
2290833	0.27866038761027
2291667	0.291337132456556
2292500	0.303998677368974
2293333	0.316660222281392
2294167	0.329336967127678
2295000	0.341998512040096
2295833	0.354660056952514
2296667	0.3673368017988
2297500	0.379998346711218
2298333	0.392659891623635
2299167	0.405336636469922
2300000	0.417998181382339
2300833	0.430659726294757
2301667	1.44333647114104
2302500	1.45599801605346
2303333	1.46865956096588
2304167	0.481336305812165
2305000	0.493997850724583
2305833	0.506659395637001
2306667	0.519336140483287
2307500	0.531997685395705
2308333	0.544659230308122
2309167	1.55733597515441
2310000	1.56999752006683
2310833	1.58265906497924
2311667	2.58016200848218
2312500	1.56379371291205
2313333	2.54742541734191
2314167	2.53103747195717
2315000	2.51466917638704
2315833	2.49830088081691
2316667	2.48191293543217
2317500	2.46554463986204
2318333	2.44917634429191
2319167	3.43278839890717
2320000	3.41642010333704
2320833	4.40005180776691
2321667	4.38366386238217
2322500	4.36729556681204
2323333	5.35092727124191
2324167	5.33453932585717
2325000	5.31817103028704
2325833	5.3018027347169
2326667	5.28541478933216
2327500	6.26904649376203
2328333	6.2526781981919
2329167	7.23629025280716
2330000	8.21992195723703
2330833	9.2035536616669
2331667	10.1871657162822
2332500	11.170797420712
2333333	12.1544291251419
2334167	13.1380411797572
2335000	14.121672884187
2335833	16.1053045886169
2336667	17.0889166432322
2337500	19.072548347662
2338333	21.0561800520919
2339167	22.0397921067072
2340000	24.023423811137
2340833	26.0070555155669
2341667	27.9906675701822
2342500	28.974299274612
2343333	30.9579309790419
2344167	33.9415430336571
2345000	35.925174738087
2345833	38.9088064425169
2346667	41.8924184971321
2347500	45.876050201562
2348333	49.8596819059919
2349167	53.8432939606071
2350000	57.826925665037
2350833	62.8105573694669
2351667	66.7941694240821
2352500	71.777801128512
2353333	76.7614328329419
2354167	81.7450448875571
2355000	87.728676591987
2355833	93.7123082964169
2356667	99.6959203510321
2357500	106.679552055462
2358333	114.663183759892
2359167	122.646795814507
2360000	131.630427518937
2360833	140.614059223367
2361667	150.597671277982
2362500	160.581302982412
2363333	171.564934686842
2364167	183.548546741457
2365000	195.532178445887
2365833	208.515810150317
2366667	222.499422204932
2367500	236.483053909362
2368333	251.466685613792
2369167	268.450297668407
2370000	285.433929372837
2370833	303.417561077267
2371667	322.401173131882
2372500	342.384804836312
2373333	363.368436540742
2374167	386.352048595357
2375000	409.335680299787
2375833	434.319312004217
2376667	460.302924058832
2377500	487.286555763262
2378333	516.270187467692
2379167	546.253799522307
2380000	577.237431226737
2380833	610.221062931167
2381667	644.204674985782
2382500	681.188306690212
2383333	719.171938394642
2384167	758.155550449257
2385000	800.139182153687
2385833	843.122813858117
2386667	888.106425912732
2387500	934.090057617162
2388333	982.073689321592
2389167	1031.05730137621
2390000	1082.04093308064
2390833	1134.02456478507
2391667	1188.00817683968
2392500	1243.99180854411
2393333	1300.97544024854
2394167	1359.95905230316
2395000	1419.94268400759
2395833	1480.92631571202
2396667	1543.90992776663
2397500	1606.89355947106
2398333	1670.87719117549
2399167	1735.86080323011
2400000	1801.84443493454
2400833	1867.82806663897
2401667	1933.81167869358
2402500	2000.79531039801
2403333	2066.77894210244
2404167	2131.76255415706
2405000	2196.74618586149
2405833	2260.72981756592
2406667	2323.71342962053
2407500	2384.69706132496
2408333	2443.68069302939
2409167	2500.66430508401
2410000	2555.64793678844
2410833	2607.63156849287
2411667	2657.61518054748
2412500	2703.59881225191
2413333	2746.58244395634
2414167	2786.56605601096
2415000	2822.54968771539
2415833	2854.53331941982
2416667	2881.51693147443
2417500	2904.50056317886
2418333	2923.48419488329
2419167	2938.46780693791
2420000	2947.45143864234
2420833	2952.43507034677
2421667	2951.41868240138
2422500	2946.40231410581
2423333	2936.38594581024
2424167	2920.36955786486
2425000	2900.35318956929
2425833	2876.33682127372
2426667	2846.32043332833
2427500	2812.30406503276
2428333	2774.28769673719
2429167	2731.27130879181
2430000	2685.25494049624
2430833	2636.23857220067
2431667	2582.22218425528
2432500	2526.20581595971
2433333	2467.18944766414
2434167	2404.17305971876
2435000	2340.15669142319
2435833	2273.14032312762
2436667	2204.12393518223
2437500	2135.10756688666
2438333	2064.09119859109
2439167	1992.07481064571
2440000	1919.05844235014
2440833	1846.04207405457
2441667	1774.02568610918
2442500	1701.00931781361
2443333	1627.99294951804
2444167	1556.97656157266
2445000	1485.96019327709
2445833	1415.94382498152
2446667	1346.92743703613
2447500	1279.91106874056
2448333	1213.89470044499
2449167	1148.87831249961
2450000	1086.86194420404
2450833	1026.84557590847
2451667	967.829187963082
2452500	910.812819667512
2453333	855.796451371942
2454167	802.780063426557
2455000	752.763695130987
2455833	704.747326835417
2456667	659.730938890032
2457500	615.714570594462
2458333	574.698202298892
2459167	535.681814353507
2460000	498.665446057937
2460833	463.649077762367
2461667	430.632689816982
2462500	399.616321521412
2463333	370.599953225842
2464167	342.583565280457
2465000	316.567196984887
2465833	292.550828689317
2466667	269.534440743932
2467500	248.518072448362
2468333	228.501704152792
2469167	210.485316207407
2470000	193.468947911837
2470833	177.452579616267
2471667	163.436191670882
2472500	150.419823375312
2473333	137.403455079742
2474167	126.387067134357
2475000	115.370698838787
2475833	105.354330543217
2476667	97.337942597832
2477500	89.3215743022619
2478333	81.3052060066918
2479167	74.288818061307
2480000	68.2724497657369
2480833	63.2560814701668
2481667	58.239693524782
2482500	53.2233252292119
2483333	49.2069569336418
2484167	45.190568988257
2485000	41.1742006926869
2485833	38.1578323971168
2486667	35.141444451732
2487500	32.1250761561619
2488333	30.1087078605918
2489167	28.092319915207
2490000	25.0759516196369
2490833	23.0595833240668
2491667	21.043195378682
2492500	19.0268270831119
2493333	18.0104587875418
2494167	15.994070842157
2495000	14.9777025465869
2495833	14.9613342510168
2496667	13.944946305632
2497500	12.9285780100619
2498333	11.9122097144918
2499167	10.895821769107
2500000	10.8794534735369
2500833	9.86308517796676
2501667	9.84669723258202
2502500	8.83032893701189
2503333	7.81396064144176
2504167	7.79757269605702
2505000	6.78120440048689
2505833	5.76483610491676
2506667	5.74844815953202
2507500	4.73207986396189
2508333	4.71571156839176
2509167	3.69932362300702
2510000	3.68295532743689
2510833	3.66658703186676
2511667	3.65019908648202
2512500	2.63383079091189
2513333	2.61746249534175
2514167	2.60107454995701
2515000	2.58470625438688
2515833	2.56833795881675
2516667	2.55195001343201
2517500	1.53558171786188
2518333	1.51921342229175
2519167	1.50282547690701
2520000	0.486457181336879
2520833	0.470088885766748
2521667	0.453700940382008
2522500	0.437332644811876
2523333	0.420964349241746
2524167	0.404576403857005
2525000	0.388208108286875
2525833	0.371839812716745
2526667	0.355451867332004
2527500	0.339083571761874
2528333	0.322715276191742
2529167	0.306327330807001
2530000	-0.710040964763129
2530833	-0.726409260333259
2531667	-0.742797205718
2532500	-0.725121671270885
2533333	-0.656669039059256
2534167	-0.588134230818562
2535000	-0.519681598606933
2535833	-0.451228966395305
2536667	-1.38269415815461
2537500	-1.31424152594298
2538333	-1.24578889373135
2539167	-1.17725408549066
2540000	-1.10880145327903
2540833	-1.0403488210674
2541667	-1.97181401282671
2542500	-0.903361380615078
2543333	-0.83490874840345
2544167	-0.766373940162755
2545000	-0.697921307951127
2545833	-0.629468675739498
2546667	-0.560933867498804
2547500	-0.492481235287175
2548333	-0.424028603075547
2549167	-1.35549379483485
2550000	-1.28704116262322
2550833	-1.2185885304116
2551667	-1.1500537221709
2552500	-2.08160108995927
2553333	-2.01314845774764
2554167	-1.94461364950695
2555000	-2.87616101729532
2555833	-2.80770838508369
2556667	-2.739173576843
2557500	-2.67072094463137
2558333	-2.60226831241974
2559167	-2.53373350417905
2560000	-2.46528087196742
2560833	-2.39682823975579
2561667	-1.3282934315151
2562500	-1.25984079930347
2563333	-1.19138816709184
2564167	-2.12285335885114
2565000	-2.05440072663951
2565833	-1.98594809442789
2566667	-1.91741328618719
2567500	-1.84896065397556
2568333	-1.78050802176393
2569167	-0.71197321352324
2570000	-0.643520581311612
2570833	-0.575067949099983
2571667	-1.50653314085929
2572500	-1.43808050864766
2573333	-1.36962787643603
2574167	-1.30109306819534
2575000	-1.23264043598371
2575833	-1.16418780377208
2576667	-1.09565299553139
2577500	-1.02720036331976
2578333	-0.958747731108129
2579167	-0.890212922867434
2580000	-0.821760290655806
2580833	-0.753307658444177
2581667	-0.684772850203483
2582500	-0.616320217991855
2583333	-0.547867585780225
2584167	0.520667222460468
2585000	0.589119854672097
2585833	0.657572486883725
2586667	0.72610729512442
2587500	0.794559927336048
2588333	-0.136987440452323
2589167	-0.0684526322116286
2590000	0
2590833	-0.991382788335213
2591667	-0.982755231878511
2592500	-0.974138020213723
2593333	0.034479191451064
2594167	0.0431067479077658
2595000	0.0517239595725532
2595833	0.0603411712373406
2596667	0.0689687276940424
2597500	0.0775859393588298
2598333	0.0862031510236172
2599167	0.094830707480319
2600000	0.103447919145106
2600833	0.112065130809894
2601667	0.120692687266596
2602500	0.129309898931383
2603333	0.13792711059617
2604167	0.146554667052872
2605000	0.15517187871766
2605833	0.163789090382447
2606667	0.172416646839149
2607500	0.181033858503936
2608333	0.189651070168724
2609167	-0.801721373374575
2610000	-0.793104161709787
2610833	-0.784486950045
2611667	0.224140606411702
2612500	0.232757818076489
2613333	0.241375029741277
2614167	0.250002586197979
2615000	0.258619797862766
2615833	0.267237009527553
2616667	0.275864565984255
2617500	1.28448177764904
2618333	1.29309898931383
2619167	0.301726545770532
2620000	0.310343757435319
2620833	0.318960969100107
2621667	0.327588525556808
2622500	0.336205737221596
2623333	0.344822948886383
2624167	0.353450505343085
2625000	0.362067717007872
2625833	0.37068492867266
2626667	0.379312485129362
2627500	0.387929696794149
2628333	0.396546908458936
2629167	0.405174464915638
2630000	0.413791676580426
2630833	0.422408888245213
2631667	0.431036444701915
2632500	0.439653656366702
2633333	0.44827086803149
2634167	0.456898424488191
2635000	0.465515636152979
2635833	0.474132847817766
2636667	1.48276040427447
2637500	1.49137761593926
2638333	1.49999482760404
2639167	1.50862238406074
2640000	0.517239595725532
2640833	0.525856807390319
2641667	0.534484363847021
2642500	0.543101575511809
2643333	0.551718787176596
2644167	0.560346343633298
2645000	0.568963555298085
2645833	-0.422419233037127
2646667	-0.413791676580426
2647500	-0.405174464915638
2648333	-0.396557253250851
2649167	-0.387929696794149
2650000	-0.379312485129362
2650833	-0.370695273464574
2651667	-0.362067717007872
2652500	0.646549494656915
2653333	0.655166706321702
2654167	-0.336205737221596
2655000	-0.327588525556808
2655833	-0.318971313892021
2656667	-0.310343757435319
2657500	0.698273454229468
2658333	0.706890665894256
2659167	0.715518222350957
2660000	-0.275864565984255
2660833	-0.267247354319468
2661667	-0.258619797862766
2662500	-0.250002586197979
2663333	-0.241385374533191
2664167	-0.232757818076489
2665000	-0.224140606411702
2665833	-0.215523394746915
2666667	-0.206895838290213
2667500	-0.198278626625425
2668333	-0.189661414960638
2669167	-0.181033858503936
2670000	-0.172416646839149
2670833	-0.163799435174361
2671667	-0.15517187871766
2672500	-1.14655466705287
2673333	-1.13793745538809
2674167	-1.12930989893138
2675000	-1.1206926872666
2675833	-1.11207547560181
2676667	-0.103447919145106
2677500	-0.0948307074803191
2678333	-0.0862134958155316
2679167	-0.0775859393588298
2680000	-0.0689687276940424
2680833	0.939648483970745
2681667	-0.0517239595725532
2682500	-0.0431067479077658
2683333	0.965510463757022
2684167	0.974138020213723
2685000	0.982755231878511
2685833	-0.00862755645670188
2686667	0
2687500	1.00861730080897
2688333	1.01723460161794
2689167	1.02586224732584
2690000	0.0344795481348148
2690833	0.0430968489437857
2691667	0.0517244946516873
2692500	0.0603417954606584
2693333	0.0689590962696294
2694167	0.0775867419775309
2695000	0.0862040427865021
2695833	0.094821343595473
2696667	-0.896551010696625
2697500	-0.887933709887654
2698333	-0.879316409078683
2699167	-0.870688763370782
2700000	-0.862071462561811
2700833	-0.85345416175284
2701667	-0.844826516044938
2702500	-0.836209215235967
2703333	-0.827591914426996
2704167	-0.818964268719095
2705000	-0.810346967910124
2705833	-0.801729667101152
2706667	-0.793102021393251
2707500	0.21551527941572
2708333	0.224132580224691
2709167	0.232760225932593
2710000	0.241377526741564
2710833	0.249994827550535
2711667	0.258622473258436
2712500	0.267239774067407
2713333	0.275857074876378
2714167	0.28448472058428
2715000	0.293102021393251
2715833	0.301719322202222
2716667	0.310346967910124
2717500	0.318964268719095
2718333	1.32758156952807
2719167	0.336209215235967
2720000	0.344826516044938
2720833	0.353443816853909
2721667	0.362071462561811
2722500	0.370688763370782
2723333	0.379306064179753
2724167	0.387933709887654
2725000	0.396551010696625
2725833	0.405168311505597
2726667	0.413795957213498
2727500	0.422413258022469
2728333	0.43103055883144
2729167	0.439658204539342
2730000	0.448275505348313
2730833	0.456892806157284
2731667	0.465520451865185
2732500	0.474137752674156
2733333	0.482755053483128
2734167	-0.508617300808971
2735000	0.5
2735833	0.508617300808971
2736667	0.517244946516873
2737500	0.525862247325844
2738333	0.534479548134815
2739167	0.543107193842716
2740000	0.551724494651687
2740833	0.560341795460658
2741667	0.56896944116856
2742500	1.57758674197753
2743333	1.5862040427865
2744167	1.5948316884944
2745000	1.60344898930337
2745833	1.61206629011235
2746667	0.620693935820247
2747500	0.629311236629218
2748333	0.637928537438189
2749167	0.646556183146091
2750000	0.655173483955062
2750833	0.663790784764033
2751667	-0.327581569528066
2752500	-0.318964268719095
2753333	-0.310346967910124
2754167	-0.301719322202222
2755000	-0.293102021393251
2755833	-0.28448472058428
2756667	-0.275857074876378
2757500	-0.267239774067408
2758333	0.741377526741564
2759167	0.750005172449465
2760000	0.758622473258436
2760833	0.767239774067408
2761667	0.775867419775309
2762500	-0.21551527941572
2763333	-0.206897978606749
2764167	-0.198270332898848
2765000	-0.189653032089876
2765833	-0.181035731280905
2766667	-0.172408085573004
2767500	-0.163790784764033
2768333	-0.155173483955062
2769167	0.85345416175284
2770000	0.862071462561811
2770833	0.870688763370782
2771667	0.879316409078683
2772500	-0.112066290112346
2773333	-0.103448989303375
2774167	0.905178656404527
2775000	0.913795957213498
2775833	0.922413258022469
2776667	0.93104090373037
2777500	0.939658204539342
2778333	0.948275505348313
2779167	0.956903151056214
2780000	-0.0344795481348146
2780833	-0.0258622473258436
2781667	0.982765398382058
2782500	-0.00861730080897116
2783333	0
2784167	0.00384922484734629
2785000	0.00769383431717818
2785833	0.0115384437870096
2786667	0.0153876686343559
2787500	0.0192322781041874
2788333	-0.976923112425981
2789167	-0.973073887578634
2790000	-0.969229278108803
2790833	0.0346153313610289
2791667	0.0384645562083752
2792500	0.0423091656782066
2793333	1.04615377514804
2794167	1.05000299999538
2795000	1.05384760946522
2795833	1.05769221893505
2796667	1.06154144378239
2797500	0.0653860532522259
2798333	0.0692306627220574
2799167	0.0730798875694036
2800000	0.0769244970392355
2800833	0.080769106509067
2801667	1.08461833135641
2802500	1.08846294082624
2803333	1.09230755029608
2804167	0.0961567751434229
2805000	0.100001384613254
2805833	-0.896154005916914
2806667	-0.892304781069567
2807500	-0.888460171599736
2808333	-0.884615562129905
2809167	0.119233662717442
2810000	0.123078272187274
2810833	0.126922881657105
2811667	0.130772106504451
2812500	0.134616715974283
2813333	0.138461325444115
2814167	0.142310550291461
2815000	0.146155159761292
2815833	0.149999769231124
2816667	0.153848994078471
2817500	0.157693603548302
2818333	0.161538213018134
2819167	0.16538743786548
2820000	0.169232047335312
2820833	0.173076656805143
2821667	0.17692588165249
2822500	0.180770491122321
2823333	0.184615100592153
2824167	0.188464325439499
2825000	0.192308934909331
2825833	0.196153544379162
2826667	0.200002769226509
2827500	0.203847378696341
2828333	0.207691988166172
2829167	0.211541213013518
2830000	0.21538582248335
2830833	0.219230431953182
2831667	0.223079656800528
2832500	0.226924266270359
2833333	0.230768875740191
2834167	0.234618100587538
2835000	0.238462710057369
2835833	-0.757692680472799
2836667	-0.753843455625453
2837500	-0.749998846155621
2838333	-0.74615423668579
2839167	-0.742305011838443
2840000	-0.738460402368612
2840833	-0.73461579289878
2841667	-0.730766568051434
2842500	-0.726921958581602
2843333	-0.723077349111771
2844167	-0.719228124264424
2845000	-0.715383514794593
2845833	-0.711538905324761
2846667	-0.707689680477415
2847500	-0.703845071007583
2848333	-0.700000461537751
2849167	-0.696151236690405
2850000	-0.692306627220574
2850833	-0.688462017750742
2851667	-0.684612792903395
2852500	-0.680768183433564
2853333	-0.676923573963732
2854167	-0.673074349116386
2855000	0.330770260353446
2855833	0.334614869823277
2856667	0.338464094670623
2857500	0.342308704140455
2858333	-0.653846686389713
2859167	-0.649997461542367
2860000	-0.646152852072535
2860833	-0.642308242602704
2861667	-0.638459017755357
2862500	-1.63461440828553
2863333	-1.63076979881569
2864167	-1.62692057396835
2865000	-0.623075964498516
2865833	-0.619231355028685
2866667	-0.615382130181338
2867500	-0.611537520711507
2868333	-0.607692911241675
2869167	-0.603843686394328
2870000	-0.599999076924497
2870833	-0.596154467454665
2871667	-0.592305242607319
2872500	-0.588460633137487
2873333	-0.584616023667656
2874167	-0.58076679882031
2875000	-0.576922189350478
2875833	-0.573077579880646
2876667	-0.5692283550333
2877500	-0.565383745563468
2878333	-1.56153913609364
2879167	-1.55768991124629
2880000	-1.55384530177646
2880833	-0.550000692306627
2881667	-0.546151467459281
2882500	-0.542306857989449
2883333	-0.538462248519618
2884167	-0.534613023672271
2885000	-0.53076841420244
2885833	-0.526923804732608
2886667	-0.523074579885262
2887500	-0.51922997041543
2888333	-0.515385360945599
2889167	-0.511536136098252
2890000	-0.507691526628421
2890833	-0.503846917158589
2891667	-0.499997692311243
2892500	-0.496153082841411
2893333	-0.49230847337158
2894167	-0.488459248524233
2895000	-0.484614639054402
2895833	0.51922997041543
2896667	0.523079195262777
2897500	0.526923804732608
2898333	1.53076841420244
2899167	1.53461763904979
2900000	1.53846224851962
2900833	1.54230685798945
2901667	1.5461560828368
2902500	1.55000069230663
2903333	1.55384530177646
2904167	0.557694526623805
2905000	0.561539136093637
2905833	0.565383745563468
2906667	0.569232970410815
2907500	0.573077579880646
2908333	0.576922189350478
2909167	0.580771414197824
2910000	0.584616023667656
2910833	0.588460633137488
2911667	0.592309857984834
2912500	0.596154467454665
2913333	0.599999076924497
2914167	0.603848301771843
2915000	0.607692911241675
2915833	0.611537520711507
2916667	0.615386745558853
2917500	0.619231355028685
2918333	0.623075964498516
2919167	0.626925189345863
2920000	0.630769798815694
2920833	0.634614408285526
2921667	0.638463633132872
2922500	0.642308242602704
2923333	0.646152852072535
2924167	0.650002076919882
2925000	0.653846686389713
2925833	0.657691295859545
2926667	0.661540520706891
2927500	0.665385130176723
2928333	0.669229739646554
2929167	0.673078964493901
2930000	0.676923573963732
2930833	0.680768183433564
2931667	0.68461740828091
2932500	0.688462017750742
2933333	0.692306627220574
2934167	0.69615585206792
2935000	0.700000461537751
2935833	-0.296154928992417
2936667	0.707694295854929
2937500	0.711538905324761
2938333	0.715383514794593
2939167	0.719232739641939
2940000	-0.276922650888229
2940833	-0.273078041418398
2941667	-0.269228816571052
2942500	-0.26538420710122
2943333	-0.261539597631388
2944167	-0.257690372784042
2945000	-0.25384576331421
2945833	-0.250001153844379
2946667	-0.246151928997032
2947500	-0.242307319527201
2948333	-0.238462710057369
2949167	-0.234613485210023
2950000	-1.23076887574019
2950833	-1.22692426627036
2951667	-1.22307504142301
2952500	-1.21923043195318
2953333	-1.21538582248335
2954167	-0.211536597636004
2955000	-0.207691988166172
2955833	-0.203847378696341
2956667	-0.199998153848994
2957500	-0.196153544379162
2958333	0.807691065090669
2959167	0.811540289938016
2960000	0.815384899407847
2960833	0.819229508877679
2961667	0.823078733725025
2962500	0.826923343194856
2963333	0.830767952664688
2964167	0.834617177512035
2965000	0.838461786981866
2965833	0.842306396451698
2966667	0.846155621299044
2967500	0.850000230768876
2968333	0.853844840238708
2969167	0.857694065086054
2970000	0.861538674555885
2970833	0.865383284025717
2971667	0.869232508873063
2972500	0.873077118342895
2973333	0.876921727812726
2974167	-0.119229047339927
2975000	-0.115384437870095
2975833	-0.111539828400264
2976667	-0.107690603552918
2977500	-1.10384599408309
2978333	-1.10000138461325
2979167	-0.0961521597659081
2980000	-0.0923075502960766
2980833	-0.0884629408262447
2981667	-0.0846137159788984
2982500	-0.080769106509067
2983333	-0.0769244970392355
2984167	-0.0730752721918888
2985000	-0.0692306627220574
2985833	-0.0653860532522259
2986667	0.938463171595121
2987500	0.942307781064952
2988333	0.946152390534784
2989167	0.95000161538213
2990000	-0.0461537751480381
2990833	-0.0423091656782066
2991667	-0.0384599408308604
2992500	0.965384668638971
2993333	0.969229278108803
2994167	0.973078502956149
2995000	0.976923112425981
2995833	-0.0192322781041874
2996667	0.984616946743159
2997500	0.98846155621299
2998333	-0.00769383431717774
2999167	-0.00384460946983145
3000000	0
